Altitude,Temperature,u,v,k,eps
7.51041,21.0719,4.847837762512228,0.8452007823354366,0.169081,0.0045688
12.5348,21.0246,5.176598946194462,0.8838395440114624,0.158235,0.00255953
17.5691,20.9774,5.40162221555923,0.9046077563657068,0.149079,0.00172361
22.616,20.9303,5.575088221291977,0.9164308378221743,0.141068,0.00128054
27.6757,20.8833,5.718265235447025,0.922822576055642,0.133755,0.00101055
32.748,20.8364,5.841913828779523,0.925446917286218,0.126897,0.000830934
37.8331,20.7897,5.9522908297551425,0.9252030820381185,0.120358,0.000704325
42.931,20.7431,6.053423217225759,0.9225510065314245,0.114055,0.000611613
48.0418,20.6968,6.148157470443522,0.9177574413370441,0.107934,0.000541627
53.1654,20.6508,6.238540356030791,0.910894818447893,0.101964,0.000487346
58.3018,20.605,6.326145962287123,0.901956353677009,0.096125,0.000444308
63.4512,20.5596,6.4122383699926475,0.8908056660091661,0.0904102,0.000409537
68.6136,20.5145,6.497861151346374,0.8772474171085194,0.0848187,0.000380961
73.7889,20.4699,6.5839150467746315,0.8610081720022169,0.0793561,0.000357087
78.9773,20.4258,6.671177384133171,0.8417316142512997,0.0740325,0.000336795
84.1787,20.3823,6.760326422681233,0.8189519495049495,0.0688614,0.000319226
89.3932,20.3394,6.851943605553237,0.7921448459203054,0.0638581,0.000303697
94.6208,20.2972,6.946521016888144,0.7606741013280989,0.059038,0.000289659
99.8615,20.2557,7.044390882264671,0.7238399113522034,0.0544151,0.000276662
105.115,20.2151,7.145779041478521,0.6808450957202357,0.0500001,0.000264339
110.383,20.1755,7.250693358101689,0.6308019956214836,0.0457994,0.00025239
115.663,20.1369,7.358964810358366,0.5727738444685284,0.0418143,0.000240579
120.957,20.0995,7.470189233518617,0.5057891223845398,0.038041,0.000228717
126.264,20.0634,7.583710433053685,0.42881481981466035,0.0344718,0.000216662
131.584,20.0286,7.698632146708727,0.3408049855312769,0.0310966,0.000204312
136.918,19.9953,7.8137452924663435,0.24069805433375266,0.0279045,0.000191601
142.265,19.9636,7.927566667007935,0.12744850820899933,0.0248833,0.000178506
147.626,19.9337,8.038280828050237,-8.708001095209134e-18,0.0220231,0.000165014
153.0,19.9057,8.143618374474995,-0.1425816643654138,0.0193246,0.00015107
158.387,19.8797,8.240739011287753,-0.3009561244436881,0.0167889,0.000136708
163.788,19.8558,8.32623366214666,-0.47541629403696123,0.0144123,0.00012206
169.203,19.8342,8.396068464227861,-0.6658230662859532,0.0121965,0.000107272
174.632,19.8148,8.445491617386887,-0.871314585409783,0.0101454,9.25184e-05
180.074,19.7977,8.468952294691407,-1.0899247686616462,0.00826373,7.79992e-05
185.529,19.7831,8.460057353103835,-1.318048416587839,0.00655852,6.39479e-05
190.999,19.7709,8.411717230124548,-1.5497654947658348,0.00502995,5.0578e-05
196.482,19.7611,8.316524184532035,-1.775306045877651,0.00369942,3.82523e-05
201.979,19.7538,8.167423022384071,-1.9801253993598993,0.00253648,2.6961e-05
207.49,19.7488,7.9613367538059405,-2.1401793711060035,0.00161946,1.7607e-05
213.014,19.7462,7.701543508196414,-2.220010339981925,0.000831771,9.28561e-06
218.553,19.7457,7.425559746836822,-2.1633697465280095,0.000371981,4.20389e-06
224.105,19.7471,7.256509905973075,-1.9006671612648607,9.04481e-07,1.97024e-08
229.672,19.7501,7.467993847701414,-1.8321068427427876,2.96474e-11,4.35741e-13
235.252,19.7545,7.2879346453570895,-1.814594418248638,1.01733e-15,1.08684e-17
240.847,19.76,7.413570458156872,-1.849340227526708,4.10738e-20,3.67833e-22
246.456,19.7662,7.42510047793493,-1.8537074087145684,1e-24,1e-24
252.078,19.7728,7.425612352234175,-1.8539289024205092,1e-24,1e-24
257.715,19.7795,7.425630981939483,-1.8539368914179546,1e-24,1e-24
263.366,19.7857,7.425630981939483,-1.8539368914179546,1e-24,1e-24
269.031,19.7913,7.425630981939483,-1.8539368914179546,1e-24,1e-24
274.711,19.7958,7.425630981939483,-1.8539368914179546,1e-24,1e-24
280.405,19.799,7.425630981939483,-1.8539368914179546,1e-24,1e-24
286.113,19.8005,7.425630981939483,-1.8539368914179546,1e-24,1e-24
291.835,19.8,7.425630981939483,-1.8539368914179546,1e-24,1e-24
297.572,19.7975,7.425630981939483,-1.8539368914179546,1e-24,1e-24
303.323,19.7924,7.425630981939483,-1.8539368914179546,1e-24,1e-24
309.089,19.7849,7.425630981939483,-1.8539368914179546,1e-24,1e-24
314.869,19.7749,7.425630981939483,-1.8539368914179546,1e-24,1e-24
320.664,19.7623,7.425630981939483,-1.8539368914179546,1e-24,1e-24
326.474,19.7472,7.425630981939483,-1.8539368914179546,1e-24,1e-24
332.298,19.7295,7.425630981939483,-1.8539368914179546,1e-24,1e-24
338.136,19.709,7.425630981939483,-1.8539368914179546,1e-24,1e-24
343.99,19.6861,7.425630981939483,-1.8539368914179546,1e-24,1e-24
349.858,19.6608,7.425630981939483,-1.8539368914179546,1e-24,1e-24
355.741,19.6332,7.425630981939483,-1.8539368914179546,1e-24,1e-24
361.638,19.6035,7.425630981939483,-1.8539368914179546,1e-24,1e-24
367.551,19.5717,7.425630981939483,-1.8539368914179546,1e-24,1e-24
373.478,19.5378,7.425630981939483,-1.8539368914179546,1e-24,1e-24
379.42,19.5022,7.425630981939483,-1.8539368914179546,1e-24,1e-24
385.378,19.4649,7.425630981939483,-1.8539368914179546,1e-24,1e-24
391.35,19.426,7.425630981939483,-1.8539368914179546,1e-24,1e-24
397.337,19.3857,7.425630981939483,-1.8539368914179546,1e-24,1e-24
403.339,19.344,7.425630981939483,-1.8539368914179546,1e-24,1e-24
409.357,19.301,7.425630981939483,-1.8539368914179546,1e-24,1e-24
415.389,19.2569,7.425630981939483,-1.8539368914179546,1e-24,1e-24
421.437,19.2118,7.425630981939483,-1.8539368914179546,1e-24,1e-24
427.5,19.1657,7.425630981939483,-1.8539368914179546,1e-24,1e-24
433.578,19.1187,7.425630981939483,-1.8539368914179546,1e-24,1e-24
439.671,19.0709,7.425630981939483,-1.8539368914179546,1e-24,1e-24
445.78,19.0223,7.425630981939483,-1.8539368914179546,1e-24,1e-24
451.904,18.9731,7.425630981939483,-1.8539368914179546,1e-24,1e-24
458.044,18.9232,7.425630981939483,-1.8539368914179546,1e-24,1e-24
464.199,18.8728,7.425630981939483,-1.8539368914179546,1e-24,1e-24
470.369,18.8218,7.425630981939483,-1.8539368914179546,1e-24,1e-24
476.555,18.7704,7.425630981939483,-1.8539368914179546,1e-24,1e-24
482.757,18.7185,7.425630981939483,-1.8539368914179546,1e-24,1e-24
488.974,18.6661,7.425630981939483,-1.8539368914179546,1e-24,1e-24
495.207,18.6134,7.425630981939483,-1.8539368914179546,1e-24,1e-24
501.456,18.5603,7.425630981939483,-1.8539368914179546,1e-24,1e-24
507.72,18.5069,7.425630981939483,-1.8539368914179546,1e-24,1e-24
514.0,18.4531,7.425630981939483,-1.8539368914179546,1e-24,1e-24
520.296,18.3991,7.425630981939483,-1.8539368914179546,1e-24,1e-24
526.607,18.3448,7.425630981939483,-1.8539368914179546,1e-24,1e-24
532.935,18.2902,7.425630981939483,-1.8539368914179546,1e-24,1e-24
539.278,18.2354,7.425630981939483,-1.8539368914179546,1e-24,1e-24
545.638,18.1803,7.425630981939483,-1.8539368914179546,1e-24,1e-24
552.013,18.125,7.425630981939483,-1.8539368914179546,1e-24,1e-24
558.405,18.0695,7.425630981939483,-1.8539368914179546,1e-24,1e-24
564.812,18.0138,7.425630981939483,-1.8539368914179546,1e-24,1e-24
571.236,17.9578,7.425630981939483,-1.8539368914179546,1e-24,1e-24
577.676,17.9017,7.425630981939483,-1.8539368914179546,1e-24,1e-24
584.132,17.8454,7.425630981939483,-1.8539368914179546,1e-24,1e-24
590.604,17.7889,7.425630981939483,-1.8539368914179546,1e-24,1e-24
597.092,17.7322,7.425630981939483,-1.8539368914179546,1e-24,1e-24
603.597,17.6754,7.425630981939483,-1.8539368914179546,1e-24,1e-24
610.119,17.6183,7.425630981939483,-1.8539368914179546,1e-24,1e-24
616.656,17.5611,7.425630981939483,-1.8539368914179546,1e-24,1e-24
623.21,17.5038,7.425630981939483,-1.8539368914179546,1e-24,1e-24
629.781,17.4462,7.425630981939483,-1.8539368914179546,1e-24,1e-24
636.368,17.3885,7.425630981939483,-1.8539368914179546,1e-24,1e-24
642.972,17.3307,7.425630981939483,-1.8539368914179546,1e-24,1e-24
649.592,17.2726,7.425630981939483,-1.8539368914179546,1e-24,1e-24
656.229,17.2145,7.425630981939483,-1.8539368914179546,1e-24,1e-24
662.883,17.1561,7.425630981939483,-1.8539368914179546,1e-24,1e-24
669.553,17.0976,7.425630981939483,-1.8539368914179546,1e-24,1e-24
676.24,17.039,7.425630981939483,-1.8539368914179546,1e-24,1e-24
682.944,16.9802,7.425630981939483,-1.8539368914179546,1e-24,1e-24
689.665,16.9212,7.425630981939483,-1.8539368914179546,1e-24,1e-24
696.403,16.8621,7.425630981939483,-1.8539368914179546,1e-24,1e-24
703.158,16.8028,7.425630981939483,-1.8539368914179546,1e-24,1e-24
709.93,16.7434,7.425630981939483,-1.8539368914179546,1e-24,1e-24
716.718,16.6838,7.425630981939483,-1.8539368914179546,1e-24,1e-24
723.524,16.624,7.425630981939483,-1.8539368914179546,1e-24,1e-24
730.347,16.5641,7.425630981939483,-1.8539368914179546,1e-24,1e-24
737.187,16.5041,7.425630981939483,-1.8539368914179546,1e-24,1e-24
744.045,16.4439,7.425630981939483,-1.8539368914179546,1e-24,1e-24
750.919,16.3835,7.425630981939483,-1.8539368914179546,1e-24,1e-24
757.811,16.323,7.425630981939483,-1.8539368914179546,1e-24,1e-24
764.721,16.2623,7.425630981939483,-1.8539368914179546,1e-24,1e-24
771.647,16.2015,7.425630981939483,-1.8539368914179546,1e-24,1e-24
778.591,16.1405,7.425630981939483,-1.8539368914179546,1e-24,1e-24
785.553,16.0794,7.425630981939483,-1.8539368914179546,1e-24,1e-24
792.532,16.0181,7.425630981939483,-1.8539368914179546,1e-24,1e-24
799.529,15.9566,7.425630981939483,-1.8539368914179546,1e-24,1e-24
806.543,15.895,7.425630981939483,-1.8539368914179546,1e-24,1e-24
813.575,15.8333,7.425630981939483,-1.8539368914179546,1e-24,1e-24
820.624,15.7713,7.425630958015337,-1.8539369885139652,1e-24,1e-24
827.692,15.7093,7.425630981939483,-1.8539368914179546,1e-24,1e-24
834.777,15.647,7.425630981939483,-1.8539368914179546,1e-24,1e-24
841.88,15.5846,7.425630981939483,-1.8539368914179546,1e-24,1e-24
849.001,15.5221,7.425630981939483,-1.8539368914179546,1e-24,1e-24
856.14,15.4593,7.425630981939483,-1.8539368914179546,1e-24,1e-24
863.296,15.3965,7.425630981939483,-1.8539368914179546,1e-24,1e-24
870.471,15.3334,7.425630981939483,-1.8539368914179546,1e-24,1e-24
877.664,15.2702,7.425630981939483,-1.8539368914179546,1e-24,1e-24
884.875,15.2069,7.425630981939483,-1.8539368914179546,1e-24,1e-24
892.104,15.1434,7.425630981939483,-1.8539368914179546,1e-24,1e-24
899.351,15.0797,7.425630981939483,-1.8539368914179546,1e-24,1e-24
906.616,15.0158,7.425630981939483,-1.8539368914179546,1e-24,1e-24
913.9,14.9518,7.425630981939483,-1.8539368914179546,1e-24,1e-24
921.202,14.8877,7.425630981939483,-1.8539368914179546,1e-24,1e-24
928.523,14.8233,7.425630981939483,-1.8539368914179546,1e-24,1e-24
935.862,14.7588,7.425630981939483,-1.8539368914179546,1e-24,1e-24
943.219,14.6942,7.425630981939483,-1.8539368914179546,1e-24,1e-24
950.595,14.6293,7.425630981939483,-1.8539368914179546,1e-24,1e-24
957.989,14.5644,7.425630981939483,-1.8539368914179546,1e-24,1e-24
965.402,14.4992,7.425630981939483,-1.8539368914179546,1e-24,1e-24
972.834,14.4339,7.425630981939483,-1.8539368914179546,1e-24,1e-24
980.284,14.3684,7.425630981939483,-1.8539368914179546,1e-24,1e-24
987.753,14.3027,7.425630981939483,-1.8539368914179546,1e-24,1e-24
995.241,14.2369,7.425630981939483,-1.8539368914179546,1e-24,1e-24
1002.75,14.1709,7.425630981939483,-1.8539368914179546,1e-24,1e-24
1010.27,14.1048,7.425630981939483,-1.8539368914179546,1e-24,1e-24
1017.82,14.0384,7.425630981939483,-1.8539368914179546,1e-24,1e-24
1025.38,13.972,7.425630958015337,-1.8539369885139652,1e-24,1e-24
1032.96,13.9053,7.425630981939483,-1.8539368914179546,1e-24,1e-24
1040.57,13.8385,7.425630981939483,-1.8539368914179546,1e-24,1e-24
1048.19,13.7715,7.425630981939483,-1.8539368914179546,1e-24,1e-24
1055.83,13.7043,7.425630981939483,-1.8539368914179546,1e-24,1e-24
1063.49,13.6369,7.425630981939483,-1.8539368914179546,1e-24,1e-24
1071.17,13.5694,7.425630981939483,-1.8539368914179546,1e-24,1e-24
1078.86,13.5017,7.425630981939483,-1.8539368914179546,1e-24,1e-24
1086.58,13.4339,7.425630981939483,-1.8539368914179546,1e-24,1e-24
1094.32,13.3658,7.425630981939483,-1.8539368914179546,1e-24,1e-24
1102.07,13.2976,7.425630981939483,-1.8539368914179546,1e-24,1e-24
1109.85,13.2293,7.425630981939483,-1.8539368914179546,1e-24,1e-24
1117.64,13.1607,7.425630981939483,-1.8539368914179546,1e-24,1e-24
1125.46,13.092,7.425630981939483,-1.8539368914179546,1e-24,1e-24
1133.29,13.0231,7.425630981939483,-1.8539368914179546,1e-24,1e-24
1141.15,12.954,7.425630981939483,-1.8539368914179546,1e-24,1e-24
1149.02,12.8847,7.425630981939483,-1.8539368914179546,1e-24,1e-24
1156.92,12.8153,7.425630981939483,-1.8539368914179546,1e-24,1e-24
1164.83,12.7457,7.425630981939483,-1.8539368914179546,1e-24,1e-24
1172.76,12.6759,7.425630981939483,-1.8539368914179546,1e-24,1e-24
1180.72,12.606,7.425630981939483,-1.8539368914179546,1e-24,1e-24
1188.69,12.5358,7.425631005863628,-1.8539367943219442,1e-24,1e-24
1196.68,12.4655,7.425631005863628,-1.8539367943219442,1e-24,1e-24
1204.7,12.395,7.425631005863628,-1.8539367943219442,1e-24,1e-24
1212.73,12.3243,7.425631005863628,-1.8539367943219442,1e-24,1e-24
1220.79,12.2535,7.425631005863628,-1.8539367943219442,1e-24,1e-24
1228.86,12.1824,7.425630981939483,-1.8539368914179546,1e-24,1e-24
1236.95,12.1112,7.425630981939483,-1.8539368914179546,1e-24,1e-24
1245.07,12.0398,7.425630981939483,-1.8539368914179546,1e-24,1e-24
1253.21,11.9682,7.425631005863628,-1.8539367943219442,1e-24,1e-24
1261.36,11.8965,7.425631005863628,-1.8539367943219442,1e-24,1e-24
1269.54,11.8245,7.425631029787773,-1.8539366972259337,1e-24,1e-24
1277.74,11.7524,7.425631029787773,-1.8539366972259337,1e-24,1e-24
1285.95,11.6801,7.425631029787773,-1.8539366972259337,1e-24,1e-24
1294.19,11.6076,7.425631005863628,-1.8539367943219442,1e-24,1e-24
1302.45,11.5349,7.425630981939483,-1.8539368914179546,1e-24,1e-24
1310.73,11.462,7.425630981939483,-1.8539368914179546,1e-24,1e-24
1319.03,11.389,7.425630981939483,-1.8539368914179546,1e-24,1e-24
1327.35,11.3157,7.425631005863628,-1.8539367943219442,1e-24,1e-24
1335.7,11.2423,7.425631029787773,-1.8539366972259337,1e-24,1e-24
1344.06,11.1687,7.425631029787773,-1.8539366972259337,1e-24,1e-24
1352.44,11.0949,7.425631029787773,-1.8539366972259337,1e-24,1e-24
1360.85,11.0209,7.425631029787773,-1.8539366972259337,1e-24,1e-24
1369.28,10.9467,7.425631005863628,-1.8539367943219442,1e-24,1e-24
1377.73,10.8723,7.425630981939483,-1.8539368914179546,1e-24,1e-24
1386.19,10.7978,7.425630981939483,-1.8539368914179546,1e-24,1e-24
1394.69,10.723,7.425631005863628,-1.8539367943219442,1e-24,1e-24
1403.2,10.6481,7.425631029787773,-1.8539366972259337,1e-24,1e-24
1411.73,10.573,7.425631029787773,-1.8539366972259337,1e-24,1e-24
1420.29,10.4976,7.425631053711919,-1.8539366001299231,1e-24,1e-24
1428.86,10.4221,7.425631053711919,-1.8539366001299231,1e-24,1e-24
1437.46,10.3464,7.425631029787773,-1.8539366972259337,1e-24,1e-24
1446.08,10.2705,7.425631029787773,-1.8539366972259337,1e-24,1e-24
1454.72,10.1944,7.425631005863628,-1.8539367943219442,1e-24,1e-24
1463.39,10.1181,7.425630981939483,-1.8539368914179546,1e-24,1e-24
1472.07,10.0417,7.425630981939483,-1.8539368914179546,1e-24,1e-24
1480.78,9.96499,7.425631005863628,-1.8539367943219442,1e-24,1e-24
1489.51,9.88812,7.425631029787773,-1.8539366972259337,1e-24,1e-24
1498.26,9.81105,7.425631053711919,-1.8539366001299231,1e-24,1e-24
1507.03,9.73379,7.425631053711919,-1.8539366001299231,1e-24,1e-24
1515.83,9.65633,7.425631029787773,-1.8539366972259337,1e-24,1e-24
1524.64,9.57867,7.425631005863628,-1.8539367943219442,1e-24,1e-24
1533.48,9.50081,7.425631005863628,-1.8539367943219442,1e-24,1e-24
1542.34,9.42276,7.425630981939483,-1.8539368914179546,1e-24,1e-24
1551.23,9.3445,7.425630981939483,-1.8539368914179546,1e-24,1e-24
1560.13,9.26605,7.425631005863628,-1.8539367943219442,1e-24,1e-24
1569.06,9.1874,7.425631029787773,-1.8539366972259337,1e-24,1e-24
1578.01,9.10854,7.425631029787773,-1.8539366972259337,1e-24,1e-24
1586.99,9.02949,7.425631029787773,-1.8539366972259337,1e-24,1e-24
1595.98,8.95023,7.425631029787773,-1.8539366972259337,1e-24,1e-24
1605.0,8.87077,7.425631005863628,-1.8539367943219442,1e-24,1e-24
1614.04,8.79111,7.425630981939483,-1.8539368914179546,1e-24,1e-24
1623.11,8.71124,7.425630981939483,-1.8539368914179546,1e-24,1e-24
1632.2,8.63117,7.425631005863628,-1.8539367943219442,1e-24,1e-24
1641.31,8.5509,7.425631005863628,-1.8539367943219442,1e-24,1e-24
1650.44,8.47042,7.425631029787773,-1.8539366972259337,1e-24,1e-24
1659.59,8.38974,7.425631029787773,-1.8539366972259337,1e-24,1e-24
1668.77,8.30885,7.425631029787773,-1.8539366972259337,1e-24,1e-24
1677.98,8.22775,7.425631029787773,-1.8539366972259337,1e-24,1e-24
1687.2,8.14645,7.425631005863628,-1.8539367943219442,1e-24,1e-24
1696.45,8.06494,7.425631005863628,-1.8539367943219442,1e-24,1e-24
1705.72,7.98322,7.425630981939483,-1.8539368914179546,1e-24,1e-24
1715.02,7.9013,7.425630981939483,-1.8539368914179546,1e-24,1e-24
1724.34,7.81916,7.425630981939483,-1.8539368914179546,1e-24,1e-24
1733.68,7.73681,7.425631005863628,-1.8539367943219442,1e-24,1e-24
1743.04,7.65426,7.425631005863628,-1.8539367943219442,1e-24,1e-24
1752.43,7.57149,7.425631005863628,-1.8539367943219442,1e-24,1e-24
1761.85,7.48851,7.425630981939483,-1.8539368914179546,1e-24,1e-24
1771.28,7.40532,7.425630981939483,-1.8539368914179546,1e-24,1e-24
1780.74,7.32192,7.425630981939483,-1.8539368914179546,1e-24,1e-24
1790.23,7.2383,7.425630981939483,-1.8539368914179546,1e-24,1e-24
1799.73,7.15448,7.425630981939483,-1.8539368914179546,1e-24,1e-24
1809.27,7.07043,7.425631005863628,-1.8539367943219442,1e-24,1e-24
1818.82,6.98617,7.425631005863628,-1.8539367943219442,1e-24,1e-24
1828.4,6.9017,7.425631005863628,-1.8539367943219442,1e-24,1e-24
1838.01,6.81701,7.425630981939483,-1.8539368914179546,1e-24,1e-24
1847.63,6.73211,7.425630981939483,-1.8539368914179546,1e-24,1e-24
1857.29,6.64699,7.425630981939483,-1.8539368914179546,1e-24,1e-24
1866.96,6.56165,7.425630981939483,-1.8539368914179546,1e-24,1e-24
1876.66,6.47609,7.425631005863628,-1.8539367943219442,1e-24,1e-24
1886.39,6.39032,7.425631005863628,-1.8539367943219442,1e-24,1e-24
1896.14,6.30432,7.425631029787773,-1.8539366972259337,1e-24,1e-24
1905.92,6.21811,7.425631029787773,-1.8539366972259337,1e-24,1e-24
1915.71,6.13167,7.425631029787773,-1.8539366972259337,1e-24,1e-24
1925.54,6.04502,7.425631029787773,-1.8539366972259337,1e-24,1e-24
1935.39,5.95814,7.425631029787773,-1.8539366972259337,1e-24,1e-24
1945.26,5.87104,7.425631029787773,-1.8539366972259337,1e-24,1e-24
1955.16,5.78372,7.425631005863628,-1.8539367943219442,1e-24,1e-24
1965.08,5.69618,7.425630981939483,-1.8539368914179546,1e-24,1e-24
1975.03,5.60841,7.425630981939483,-1.8539368914179546,1e-24,1e-24
1985.01,5.5204,7.425630981939483,-1.8539368914179546,1e-24,1e-24
1995.0,5.43222,7.425630981939483,-1.8539368914179546,1e-24,1e-24
2005.0,5.34422,7.425630981939483,-1.8539368914179546,1e-24,1e-24
2018.56,5.22509,7.425630981939483,-1.8539368914179546,1e-24,1e-24
2041.8,5.02064,7.425630958015337,-1.8539369885139652,1e-24,1e-24
2081.59,4.66929,7.425630958015337,-1.8539369885139652,1e-24,1e-24
2149.73,4.06746,7.425630958015337,-1.8539369885139652,1e-24,1e-24
2266.33,3.03753,7.425630958015337,-1.8539369885139652,1e-24,1e-24
2465.65,1.27576,7.425630958015337,-1.8539369885139652,1e-24,1e-24
2805.8,-1.73264,7.425630958015337,-1.8539369885139652,1e-24,1e-24
3384.56,-6.86089,7.425630958015337,-1.8539369885139652,1e-24,1e-24
4364.2,-15.5668,7.425630958015337,-1.8539369885139652,1e-24,1e-24
6007.39,-30.2399,7.425630958015337,-1.8539369885139652,1e-24,1e-24
8718.86,-54.6428,7.425630958015337,-1.8539369885139652,1e-24,1e-24
13201.2,-95.5018,7.425630958015337,-1.8539369885139652,6.53355e-21,5.23343e-23
21000.0,-168.099,7.425630958015337,-1.8539369885139652,3.27008e-11,5.16066e-13
21010.0,-168.099,7.425630958015337,-1.8539369885139652,3.27008e-11,5.16066e-13
