Altitude,Temperature,u,v,k,eps
7.51041,21.0719,2.710627004307676,0.2971212358920078,0.928338,0.0473329
12.5348,21.0246,3.360088688947585,0.3525551125802882,0.893732,0.0288761
17.5691,20.9774,3.8160944244756316,0.38518055764277626,0.863167,0.020394
22.616,20.9303,4.170052258279962,0.4058000602688398,0.836073,0.015625
27.6757,20.8833,4.461421108518613,0.4189672319699342,0.811244,0.0125993
32.748,20.8364,4.710757464975435,0.4270003539556062,0.787919,0.0105213
37.8331,20.7897,4.9301438559931094,0.4312442715137126,0.765635,0.0090128
42.931,20.7431,5.127281252803843,0.43250814598832465,0.744099,0.00787257
48.0418,20.6968,5.3074052634708755,0.43130773721514554,0.723117,0.00698412
53.1654,20.6508,5.474269199754529,0.42798531822821645,0.702558,0.00627562
58.3018,20.605,5.630677854331956,0.42277356484964457,0.682326,0.0057005
63.4512,20.5596,5.778820376578025,0.41580523631455935,0.662354,0.00522739
68.6136,20.5145,5.92043662622131,0.40715706674112057,0.642589,0.0048345
73.7889,20.4699,6.05701562176094,0.39685403430471594,0.622991,0.00450635
78.9773,20.4258,6.189808310983389,0.3848847532456682,0.603531,0.00423038
84.1787,20.3823,6.319906984022986,0.37118756107590045,0.584188,0.00399678
89.3932,20.3394,6.448251658620326,0.355658214582788,0.564956,0.00379806
94.6208,20.2972,6.575705560946391,0.33817822082255333,0.545835,0.00362837
99.8615,20.2557,6.703044976576704,0.31857128258808043,0.526835,0.00348309
105.115,20.2151,6.831003947300059,0.29665717043587125,0.507975,0.00335848
110.383,20.1755,6.960274439587433,0.272173620370982,0.489279,0.00325148
115.663,20.1369,7.091506176123077,0.24485443616209046,0.470782,0.00315952
120.957,20.0995,7.225325960048597,0.21437447503798512,0.452523,0.00308042
126.264,20.0634,7.362328668213647,0.18037011420819657,0.434547,0.00301228
131.584,20.0286,7.50307987266684,0.14241108833851227,0.416902,0.00295342
136.918,19.9953,7.648097827157137,0.10004142259224916,0.399638,0.00290235
142.265,19.9636,7.797870169887002,0.05275258085122139,0.382802,0.0028577
147.626,19.9337,7.952802672976364,-1.119814866536213e-16,0.366442,0.00281815
153.0,19.9057,8.113228249211932,-0.0588173765947275,0.350614,0.00278233
158.387,19.8797,8.27933768801253,-0.12429963175862963,0.335361,0.00274895
163.788,19.8558,8.451230905965136,-0.19706240879398976,0.320708,0.00271695
169.203,19.8342,8.628851615026605,-0.2777216879409139,0.306668,0.00268532
174.632,19.8148,8.812015485048146,-0.3668911648864042,0.293242,0.00265315
180.074,19.7977,9.000387055763774,-0.46516309498919206,0.280418,0.00261959
185.529,19.7831,9.193489885816168,-0.5730647387475486,0.268172,0.00258387
190.999,19.7709,9.390716870251454,-0.6910929095821585,0.256476,0.00254532
196.482,19.7611,9.591318612278952,-0.819665344791006,0.245292,0.00250336
201.979,19.7538,9.794462369811082,-0.9591436250920132,0.234581,0.00245754
207.49,19.7488,9.999208967451812,-1.1098140188478731,0.224299,0.00240753
213.014,19.7462,10.20450886426026,-1.2718452382793162,0.214424,0.00235274
218.553,19.7457,10.409207228263645,-1.445266662199022,0.204941,0.00229269
224.105,19.7471,10.61203755119888,-1.6299760320154664,0.195815,0.00222752
229.672,19.7501,10.811756075876618,-1.825734040282174,0.187021,0.00215743
235.252,19.7545,11.007067626102556,-2.0322067429533517,0.178536,0.00208272
240.847,19.76,11.1966509792421,-2.2488566730534236,0.170346,0.0020038
246.456,19.7662,11.379361583811418,-2.4751370199196825,0.162438,0.00192115
252.078,19.7728,11.553941732822006,-2.7102771519079116,0.154804,0.00183533
257.715,19.7795,11.719211484662596,-2.9533500642748574,0.14744,0.00174693
263.366,19.7857,11.874080291339407,-3.203321008223351,0.140338,0.0016567
269.031,19.7913,12.017559768992905,-3.4590320988945984,0.133488,0.00156547
274.711,19.7958,12.148956266463014,-3.7194400491430275,0.126883,0.001474
280.405,19.799,12.267530761905268,-3.983243034589771,0.120518,0.00138302
286.113,19.8005,12.372755620877761,-4.249197671989119,0.114387,0.00129316
291.835,19.8,12.464198987814445,-4.515945138037596,0.108488,0.00120494
297.572,19.7975,12.541576205030083,-4.782105805973269,0.10283,0.00111881
303.323,19.7924,12.604897347538895,-5.046414646747427,0.0973919,0.00103558
309.089,19.7849,12.654217524101655,-5.307708963914521,0.0921517,0.000955891
314.869,19.7749,12.689752148814561,-5.564946070192975,0.0871125,0.000879891
320.664,19.7623,12.711889711626,-5.817187895457481,0.0822711,0.000807711
326.474,19.7472,12.72090309395769,-6.063322488391799,0.0776246,0.000739414
332.298,19.7295,12.717475518457464,-6.302526376583841,0.0731809,0.000674958
338.136,19.709,12.702046557140852,-6.533799921877484,0.0689245,0.00061459
343.99,19.6861,12.675344803340074,-6.75657818909393,0.0648291,0.00055855
349.858,19.6608,12.638073646291602,-6.970483231699914,0.0608938,0.000506649
355.741,19.6332,12.5909492457487,-7.1751217111544685,0.0571192,0.000458636
361.638,19.6035,12.534521070870817,-7.369987975756506,0.0535047,0.000414277
367.551,19.5717,12.469697513038588,-7.55477021610977,0.0500569,0.000373326
373.478,19.5378,12.397246151010219,-7.72916973027261,0.0467557,0.000335815
379.42,19.5022,12.317691586787237,-7.8930240598195915,0.0435807,0.000301682
385.378,19.4649,12.231738220419581,-8.046423872107834,0.040538,0.000270567
391.35,19.426,12.140045418210635,-8.18935750189128,0.037628,0.000242192
397.337,19.3857,12.043253053750785,-8.321680167305303,0.0348551,0.000216299
403.339,19.344,11.941975459596854,-8.443277870500681,0.0322084,0.000192789
409.357,19.301,11.836769837917966,-8.554262082292984,0.0296723,0.000171565
415.389,19.2569,11.728170403953037,-8.654771979111644,0.0272488,0.000152374
421.437,19.2118,11.616517527324115,-8.744710542812017,0.0249389,0.000134995
427.5,19.1657,11.502452695611083,-8.82408765695884,0.0227471,0.000119232
433.578,19.1187,11.386621227548861,-8.89290858751453,0.0206645,0.000105006
439.671,19.0709,11.269359023078625,-8.951081703537142,0.0186812,9.22202e-05
445.78,19.0223,11.151092989748516,-8.998562295460175,0.016801,8.06941e-05
451.904,18.9731,11.032495455936452,-9.035323075149757,0.0150261,7.02877e-05
458.044,18.9232,10.914148420731633,-9.061132404801837,0.0133554,6.09058e-05
464.199,18.8728,10.796720446690403,-9.075810924406488,0.0117828,5.24814e-05
470.369,18.8218,10.68089857530688,-9.079157001718631,0.0103062,4.49235e-05
476.555,18.7704,10.567603290160218,-9.071000863629049,0.00892753,3.81349e-05
482.757,18.7185,10.457856083232052,-9.051050993943596,0.00764786,3.20446e-05
488.974,18.6661,10.352971519036291,-9.019132475142348,0.00646411,2.66089e-05
495.207,18.6134,10.254390927140808,-8.975074213459257,0.00537391,2.17779e-05
501.456,18.5603,10.163868887062254,-8.91879739443031,0.00437871,1.74934e-05
507.72,18.5069,10.083691337864826,-8.850522432652994,0.00347898,1.37139e-05
514.0,18.4531,10.0166925167699,-8.770905166806385,0.0026724,1.04108e-05
520.296,18.3991,9.966075498045438,-8.680939938498733,0.00195543,7.54918e-06
526.607,18.3448,9.936406962123911,-8.583109781122426,0.00133803,5.12156e-06
532.935,18.2902,9.933770034166267,-8.480419153410127,0.000779773,3.00103e-06
539.278,18.2354,9.968150180444772,-8.386360354002742,0.000416552,1.57661e-06
545.638,18.1803,10.071462505653702,-8.331375570115434,1.02421e-05,6.8016e-08
552.013,18.125,10.140438769459543,-8.348001116271796,2.29586e-09,1.99464e-11
558.405,18.0695,10.140773172288501,-8.348224511231416,1.36257e-13,7.28844e-16
564.812,18.0138,10.140773108435917,-8.348224588191455,9.96078e-18,3.71192e-20
571.236,17.9578,10.140773108435917,-8.348224588191455,7.96219e-22,2.33618e-24
577.676,17.9017,10.140773108435917,-8.348224588191455,1e-24,1e-24
584.132,17.8454,10.140773108435917,-8.348224588191455,1e-24,1e-24
590.604,17.7889,10.140773108435917,-8.348224588191455,1e-24,1e-24
597.092,17.7322,10.140773108435917,-8.348224588191455,1e-24,1e-24
603.597,17.6754,10.140773108435917,-8.348224588191455,1e-24,1e-24
610.119,17.6183,10.140773108435917,-8.348224588191455,1e-24,1e-24
616.656,17.5611,10.140773108435917,-8.348224588191455,1e-24,1e-24
623.21,17.5038,10.140773108435917,-8.348224588191455,1e-24,1e-24
629.781,17.4462,10.140773108435917,-8.348224588191455,1e-24,1e-24
636.368,17.3885,10.140773108435917,-8.348224588191455,1e-24,1e-24
642.972,17.3307,10.140773108435917,-8.348224588191455,1e-24,1e-24
649.592,17.2726,10.140773108435917,-8.348224588191455,1e-24,1e-24
656.229,17.2145,10.140773108435917,-8.348224588191455,1e-24,1e-24
662.883,17.1561,10.140773108435917,-8.348224588191455,1e-24,1e-24
669.553,17.0976,10.140773108435917,-8.348224588191455,1e-24,1e-24
676.24,17.039,10.140773108435917,-8.348224588191455,1e-24,1e-24
682.944,16.9802,10.140773108435917,-8.348224588191455,1e-24,1e-24
689.665,16.9212,10.140773108435917,-8.348224588191455,1e-24,1e-24
696.403,16.8621,10.140773108435917,-8.348224588191455,1e-24,1e-24
703.158,16.8028,10.140773108435917,-8.348224588191455,1e-24,1e-24
709.93,16.7434,10.140773108435917,-8.348224588191455,1e-24,1e-24
716.718,16.6838,10.140773108435917,-8.348224588191455,1e-24,1e-24
723.524,16.624,10.140773108435917,-8.348224588191455,1e-24,1e-24
730.347,16.5641,10.140773108435917,-8.348224588191455,1e-24,1e-24
737.187,16.5041,10.140773108435917,-8.348224588191455,1e-24,1e-24
744.045,16.4439,10.140773108435917,-8.348224588191455,1e-24,1e-24
750.919,16.3835,10.140773108435917,-8.348224588191455,1e-24,1e-24
757.811,16.323,10.140773108435917,-8.348224588191455,1e-24,1e-24
764.721,16.2623,10.140773108435917,-8.348224588191455,1e-24,1e-24
771.647,16.2015,10.140773108435917,-8.348224588191455,1e-24,1e-24
778.591,16.1405,10.140773108435917,-8.348224588191455,1e-24,1e-24
785.553,16.0794,10.140773108435917,-8.348224588191455,1e-24,1e-24
792.532,16.0181,10.140773108435917,-8.348224588191455,1e-24,1e-24
799.529,15.9566,10.140773108435917,-8.348224588191455,1e-24,1e-24
806.543,15.895,10.140773108435917,-8.348224588191455,1e-24,1e-24
813.575,15.8333,10.140773108435917,-8.348224588191455,1e-24,1e-24
820.624,15.7713,10.140773108435917,-8.348224588191455,1e-24,1e-24
827.692,15.7093,10.140773108435917,-8.348224588191455,1e-24,1e-24
834.777,15.647,10.140773108435917,-8.348224588191455,1e-24,1e-24
841.88,15.5846,10.140773108435917,-8.348224588191455,1e-24,1e-24
849.001,15.5221,10.140773108435917,-8.348224588191455,1e-24,1e-24
856.14,15.4593,10.140773108435917,-8.348224588191455,1e-24,1e-24
863.296,15.3965,10.140773108435917,-8.348224588191455,1e-24,1e-24
870.471,15.3334,10.140773108435917,-8.348224588191455,1e-24,1e-24
877.664,15.2702,10.140773108435917,-8.348224588191455,1e-24,1e-24
884.875,15.2069,10.140773108435917,-8.348224588191455,1e-24,1e-24
892.104,15.1434,10.140773108435917,-8.348224588191455,1e-24,1e-24
899.351,15.0797,10.140773108435917,-8.348224588191455,1e-24,1e-24
906.616,15.0158,10.140773108435917,-8.348224588191455,1e-24,1e-24
913.9,14.9518,10.140773108435917,-8.348224588191455,1e-24,1e-24
921.202,14.8877,10.140773108435917,-8.348224588191455,1e-24,1e-24
928.523,14.8233,10.140773108435917,-8.348224588191455,1e-24,1e-24
935.862,14.7588,10.140773108435917,-8.348224588191455,1e-24,1e-24
943.219,14.6942,10.140773108435917,-8.348224588191455,1e-24,1e-24
950.595,14.6293,10.140773108435917,-8.348224588191455,1e-24,1e-24
957.989,14.5644,10.140773108435917,-8.348224588191455,1e-24,1e-24
965.402,14.4992,10.140773108435917,-8.348224588191455,1e-24,1e-24
972.834,14.4339,10.140773108435917,-8.348224588191455,1e-24,1e-24
980.284,14.3684,10.140773108435917,-8.348224588191455,1e-24,1e-24
987.753,14.3027,10.140773044583334,-8.348224665151493,1e-24,1e-24
995.241,14.2369,10.140773044583334,-8.348224665151493,1e-24,1e-24
1002.75,14.1709,10.140773044583334,-8.348224665151493,1e-24,1e-24
1010.27,14.1048,10.140773108435917,-8.348224588191455,1e-24,1e-24
1017.82,14.0384,10.140773108435917,-8.348224588191455,1e-24,1e-24
1025.38,13.972,10.140773108435917,-8.348224588191455,1e-24,1e-24
1032.96,13.9053,10.140773044583334,-8.348224665151493,1e-24,1e-24
1040.57,13.8385,10.140773044583334,-8.348224665151493,1e-24,1e-24
1048.19,13.7715,10.14077298073075,-8.348224742111531,1e-24,1e-24
1055.83,13.7043,10.140772916878166,-8.34822481907157,1e-24,1e-24
1063.49,13.6369,10.140772916878166,-8.34822481907157,1e-24,1e-24
1071.17,13.5694,10.140772916878166,-8.34822481907157,1e-24,1e-24
1078.86,13.5017,10.14077298073075,-8.348224742111531,1e-24,1e-24
1086.58,13.4339,10.140773044583334,-8.348224665151493,1e-24,1e-24
1094.32,13.3658,10.140773044583334,-8.348224665151493,1e-24,1e-24
1102.07,13.2976,10.14077298073075,-8.348224742111531,1e-24,1e-24
1109.85,13.2293,10.140772916878166,-8.34822481907157,1e-24,1e-24
1117.64,13.1607,10.140772853025581,-8.348224896031608,1e-24,1e-24
1125.46,13.092,10.140772789172997,-8.348224972991646,1e-24,1e-24
1133.29,13.0231,10.140772789172997,-8.348224972991646,1e-24,1e-24
1141.15,12.954,10.140772789172997,-8.348224972991646,1e-24,1e-24
1149.02,12.8847,10.140772916878166,-8.34822481907157,1e-24,1e-24
1156.92,12.8153,10.14077298073075,-8.348224742111531,1e-24,1e-24
1164.83,12.7457,10.140773044583334,-8.348224665151493,1e-24,1e-24
1172.76,12.6759,10.140772916878166,-8.34822481907157,1e-24,1e-24
1180.72,12.606,10.140772789172997,-8.348224972991646,1e-24,1e-24
1188.69,12.5358,10.14077266146783,-8.348225126911725,1e-24,1e-24
1196.68,12.4655,10.140772597615246,-8.348225203871763,1e-24,1e-24
1204.7,12.395,10.140772597615246,-8.348225203871763,1e-24,1e-24
1212.73,12.3243,10.14077266146783,-8.348225126911725,1e-24,1e-24
1220.79,12.2535,10.140772789172997,-8.348224972991646,1e-24,1e-24
1228.86,12.1824,10.140772916878166,-8.34822481907157,1e-24,1e-24
1236.95,12.1112,10.14077298073075,-8.348224742111531,1e-24,1e-24
1245.07,12.0398,10.140772853025581,-8.348224896031608,1e-24,1e-24
1253.21,11.9682,10.14077266146783,-8.348225126911725,1e-24,1e-24
1261.36,11.8965,10.140772533762663,-8.348225280831802,1e-24,1e-24
1269.54,11.8245,10.140772406057494,-8.348225434751878,1e-24,1e-24
1277.74,11.7524,10.140772406057494,-8.348225434751878,1e-24,1e-24
1285.95,11.6801,10.140772469910079,-8.34822535779184,1e-24,1e-24
1294.19,11.6076,10.14077266146783,-8.348225126911725,1e-24,1e-24
1302.45,11.5349,10.140772853025581,-8.348224896031608,1e-24,1e-24
1310.73,11.462,10.14077298073075,-8.348224742111531,1e-24,1e-24
1319.03,11.389,10.140772853025581,-8.348224896031608,1e-24,1e-24
1327.35,11.3157,10.140772597615246,-8.348225203871763,1e-24,1e-24
1335.7,11.2423,10.140772406057494,-8.348225434751878,1e-24,1e-24
1344.06,11.1687,10.14077234220491,-8.348225511711917,1e-24,1e-24
1352.44,11.0949,10.14077234220491,-8.348225511711917,1e-24,1e-24
1360.85,11.0209,10.140772406057494,-8.348225434751878,1e-24,1e-24
1369.28,10.9467,10.140772597615246,-8.348225203871763,1e-24,1e-24
1377.73,10.8723,10.140772853025581,-8.348224896031608,1e-24,1e-24
1386.19,10.7978,10.14077298073075,-8.348224742111531,1e-24,1e-24
1394.69,10.723,10.140772789172997,-8.348224972991646,1e-24,1e-24
1403.2,10.6481,10.140772533762663,-8.348225280831802,1e-24,1e-24
1411.73,10.573,10.14077234220491,-8.348225511711917,1e-24,1e-24
1420.29,10.4976,10.140772214499743,-8.348225665631993,1e-24,1e-24
1428.86,10.4221,10.140772214499743,-8.348225665631993,1e-24,1e-24
1437.46,10.3464,10.14077234220491,-8.348225511711917,1e-24,1e-24
1446.08,10.2705,10.140772533762663,-8.348225280831802,1e-24,1e-24
1454.72,10.1944,10.140772789172997,-8.348224972991646,1e-24,1e-24
1463.39,10.1181,10.14077298073075,-8.348224742111531,1e-24,1e-24
1472.07,10.0417,10.140772853025581,-8.348224896031608,1e-24,1e-24
1480.78,9.96499,10.140772597615246,-8.348225203871763,1e-24,1e-24
1489.51,9.88812,10.140772406057494,-8.348225434751878,1e-24,1e-24
1498.26,9.81105,10.14077234220491,-8.348225511711917,1e-24,1e-24
1507.03,9.73379,10.140772278352326,-8.348225588671955,1e-24,1e-24
1515.83,9.65633,10.140772406057494,-8.348225434751878,1e-24,1e-24
1524.64,9.57867,10.140772597615246,-8.348225203871763,1e-24,1e-24
1533.48,9.50081,10.140772853025581,-8.348224896031608,1e-24,1e-24
1542.34,9.42276,10.14077298073075,-8.348224742111531,1e-24,1e-24
1551.23,9.3445,10.140772853025581,-8.348224896031608,1e-24,1e-24
1560.13,9.26605,10.14077266146783,-8.348225126911725,1e-24,1e-24
1569.06,9.1874,10.140772469910079,-8.34822535779184,1e-24,1e-24
1578.01,9.10854,10.140772406057494,-8.348225434751878,1e-24,1e-24
1586.99,9.02949,10.140772469910079,-8.34822535779184,1e-24,1e-24
1595.98,8.95023,10.140772597615246,-8.348225203871763,1e-24,1e-24
1605.0,8.87077,10.140772789172997,-8.348224972991646,1e-24,1e-24
1614.04,8.79111,10.14077298073075,-8.348224742111531,1e-24,1e-24
1623.11,8.71124,10.14077298073075,-8.348224742111531,1e-24,1e-24
1632.2,8.63117,10.140772853025581,-8.348224896031608,1e-24,1e-24
1641.31,8.5509,10.14077266146783,-8.348225126911725,1e-24,1e-24
1650.44,8.47042,10.140772533762663,-8.348225280831802,1e-24,1e-24
1659.59,8.38974,10.140772469910079,-8.34822535779184,1e-24,1e-24
1668.77,8.30885,10.140772469910079,-8.34822535779184,1e-24,1e-24
1677.98,8.22775,10.140772533762663,-8.348225280831802,1e-24,1e-24
1687.2,8.14645,10.14077266146783,-8.348225126911725,1e-24,1e-24
1696.45,8.06494,10.140772853025581,-8.348224896031608,1e-24,1e-24
1705.72,7.98322,10.140773044583334,-8.348224665151493,1e-24,1e-24
1715.02,7.9013,10.140773044583334,-8.348224665151493,1e-24,1e-24
1724.34,7.81916,10.14077298073075,-8.348224742111531,1e-24,1e-24
1733.68,7.73681,10.140772853025581,-8.348224896031608,1e-24,1e-24
1743.04,7.65426,10.140772789172997,-8.348224972991646,1e-24,1e-24
1752.43,7.57149,10.140772853025581,-8.348224896031608,1e-24,1e-24
1761.85,7.48851,10.140772916878166,-8.34822481907157,1e-24,1e-24
1771.28,7.40532,10.140773044583334,-8.348224665151493,1e-24,1e-24
1780.74,7.32192,10.140773108435917,-8.348224588191455,1e-24,1e-24
1790.23,7.2383,10.140773044583334,-8.348224665151493,1e-24,1e-24
1799.73,7.15448,10.140772916878166,-8.34822481907157,1e-24,1e-24
1809.27,7.07043,10.140772789172997,-8.348224972991646,1e-24,1e-24
1818.82,6.98617,10.140772789172997,-8.348224972991646,1e-24,1e-24
1828.4,6.9017,10.140772789172997,-8.348224972991646,1e-24,1e-24
1838.01,6.81701,10.140772916878166,-8.34822481907157,1e-24,1e-24
1847.63,6.73211,10.14077298073075,-8.348224742111531,1e-24,1e-24
1857.29,6.64699,10.140773044583334,-8.348224665151493,1e-24,1e-24
1866.96,6.56165,10.140772853025581,-8.348224896031608,1e-24,1e-24
1876.66,6.47609,10.140772725320414,-8.348225049951687,1e-24,1e-24
1886.39,6.39032,10.140772533762663,-8.348225280831802,1e-24,1e-24
1896.14,6.30432,10.140772406057494,-8.348225434751878,1e-24,1e-24
1905.92,6.21811,10.140772278352326,-8.348225588671955,1e-24,1e-24
1915.71,6.13167,10.140772278352326,-8.348225588671955,1e-24,1e-24
1925.54,6.04502,10.140772278352326,-8.348225588671955,1e-24,1e-24
1935.39,5.95814,10.140772278352326,-8.348225588671955,1e-24,1e-24
1945.26,5.87104,10.140772469910079,-8.34822535779184,1e-24,1e-24
1955.16,5.78372,10.14077266146783,-8.348225126911725,1e-24,1e-24
1965.08,5.69618,10.140772853025581,-8.348224896031608,1e-24,1e-24
1975.03,5.60841,10.140773044583334,-8.348224665151493,1e-24,1e-24
1985.01,5.5204,10.140773044583334,-8.348224665151493,1e-24,1e-24
1995.0,5.43222,10.14077298073075,-8.348224742111531,1e-24,1e-24
2005.0,5.34422,10.14077298073075,-8.348224742111531,1e-24,1e-24
2018.56,5.22509,10.140773108435917,-8.348224588191455,1e-24,1e-24
2041.8,5.02064,10.140773172288501,-8.348224511231416,1e-24,1e-24
2081.59,4.66929,10.140773236141085,-8.348224434271378,1e-24,1e-24
2149.73,4.06746,10.140773236141085,-8.348224434271378,1e-24,1e-24
2266.33,3.03753,10.140773236141085,-8.348224434271378,1e-24,1e-24
2465.65,1.27576,10.140773236141085,-8.348224434271378,1e-24,1e-24
2805.8,-1.73264,10.140773236141085,-8.348224434271378,1e-24,1e-24
3384.56,-6.86089,10.140773236141085,-8.348224434271378,1e-24,1e-24
4364.2,-15.5668,10.140773236141085,-8.348224434271378,1e-24,1e-24
6007.39,-30.2399,10.140773236141085,-8.348224434271378,1e-24,1e-24
8718.86,-54.6428,10.140773236141085,-8.348224434271378,1e-24,1e-24
13201.2,-95.5018,10.140773236141085,-8.348224434271378,6.78823e-21,5.554e-23
21000.0,-168.099,10.140773236141085,-8.348224434271378,3.27046e-11,5.16114e-13
