Altitude,Temperature,u,v,k,eps
7.51041,21.0719,6.639128344661854,0.7096413714740409,0.315327,0.0114712
12.5348,21.0246,7.081549577907452,0.7374852284885353,0.297782,0.00645333
17.5691,20.9774,7.381993324285744,0.7504569732507727,0.283047,0.00436178
22.616,20.9303,7.611719617015338,0.756039851425749,0.270259,0.00325044
27.6757,20.8833,7.799693586191261,0.7571573093663516,0.258647,0.00257097
32.748,20.8364,7.960432380683217,0.7551739674208333,0.247788,0.00211671
37.8331,20.7897,8.102305976763231,0.7508402236207212,0.237444,0.0017941
42.931,20.7431,8.230597127423819,0.7445458481804819,0.227472,0.00155505
48.0418,20.6968,8.348903278017545,0.7365345354481986,0.217782,0.00137257
53.1654,20.6508,8.459873193762117,0.7268871731329086,0.20831,0.00123044
58.3018,20.605,8.56550936343787,0.715626970815214,0.199015,0.00111766
63.4512,20.5596,8.66741092934827,0.7026865200885659,0.189868,0.00102663
68.6136,20.5145,8.76684417740921,0.687957101225238,0.180854,0.000952116
73.7889,20.4699,8.864893951318098,0.6712669173911399,0.171966,0.000890397
78.9773,20.4258,8.962483088891599,0.6524060391597296,0.163207,0.000838722
84.1787,20.3823,9.060447837969255,0.6310997129125263,0.154585,0.000795015
89.3932,20.3394,9.159531765875453,0.6070211242769947,0.146114,0.00075766
94.6208,20.2972,9.260407367483424,0.5797625348008384,0.137813,0.000725369
99.8615,20.2557,9.363696083914851,0.5488918438797026,0.129703,0.000697088
105.115,20.2151,9.469957128466342,0.513861072965744,0.121808,0.000671936
110.383,20.1755,9.579644852843332,0.4740957096328418,0.114152,0.000649166
115.663,20.1369,9.69315471737612,0.42891479049933845,0.106759,0.000628135
120.957,20.0995,9.810751793928059,0.3775986372292664,0.0996463,0.000608289
126.264,20.0634,9.932570183533693,0.3193572391185647,0.092828,0.000589156
131.584,20.0286,10.05857255435889,0.2533657893206559,0.0863106,0.000570333
136.918,19.9953,10.188584513202684,0.17874191205875345,0.0800932,0.000551493
142.265,19.9636,10.3222291989435,0.09460063518920361,0.0741656,0.00053238
147.626,19.9337,10.458961071679157,8.652513799147211e-17,0.068514,0.000512757
153.0,19.9057,10.598013269610945,-0.10599787568785868,0.0631308,0.000492316
158.387,19.8797,10.73839877376736,-0.22426356269279313,0.0580046,0.000470843
163.788,19.8558,10.878720703521362,-0.35559682630149586,0.0531166,0.000448271
169.203,19.8342,11.017629313185662,-0.5008141140503408,0.0484512,0.000424564
174.632,19.8148,11.153300171225503,-0.6605744779668437,0.0439971,0.000399722
180.074,19.7977,11.283723642797044,-0.8354608140918466,0.0397468,0.000373797
185.529,19.7831,11.40663731146735,-1.025871082076549,0.0356963,0.00034689
190.999,19.7709,11.519435045784817,-1.2319755136951975,0.0318444,0.000319161
196.482,19.7611,11.619015160469457,-1.4535461869789015,0.0281923,0.000290823
201.979,19.7538,11.702278457409923,-1.6900484328088377,0.0247435,0.00026215
207.49,19.7488,11.76538407597726,-1.9403456379575048,0.0214928,0.000233468
213.014,19.7462,11.804570381059682,-2.2027776213245995,0.0184508,0.000204983
218.553,19.7457,11.815372413864445,-2.4743744935217684,0.0156298,0.000176993
224.105,19.7471,11.793493675982951,-2.7510909484512016,0.0130239,0.000149917
229.672,19.7501,11.73447242372191,-3.0275502544648316,0.0106377,0.000124128
235.252,19.7545,11.634174006797828,-3.296552333019112,0.008479,0.000100001
240.847,19.76,11.489045287813477,-3.5486546277527404,0.00654134,7.77852e-05
246.456,19.7662,11.297269994229945,-3.771005748271505,0.00485721,5.80116e-05
252.078,19.7728,11.05878243117589,-3.9473067252278105,0.00336763,4.03707e-05
257.715,19.7795,10.78136737651863,-4.054363142809947,0.00220265,2.63048e-05
263.366,19.7857,10.480085847492528,-4.063108169550478,0.00115217,1.37827e-05
269.031,19.7913,10.206043095125743,-3.935546754395903,0.000547087,6.45074e-06
274.711,19.7958,10.08741530459905,-3.629024172715589,1.43777e-06,3.47964e-08
280.405,19.799,10.256981085170722,-3.7337778589327324,4.50663e-11,7.28438e-13
286.113,19.8005,10.19629564022718,-3.5533708235366186,1.7423e-15,1.954e-17
291.835,19.8,10.194132716628081,-3.5435969183629195,6.24596e-20,5.52761e-22
297.572,19.7975,10.194112849582153,-3.5433533320322566,1e-24,1e-24
303.323,19.7924,10.194114150797628,-3.543349655506956,1e-24,1e-24
309.089,19.7849,10.194114150797628,-3.543349655506956,1e-24,1e-24
314.869,19.7749,10.194114150797628,-3.543349655506956,1e-24,1e-24
320.664,19.7623,10.194114150797628,-3.543349655506956,1e-24,1e-24
326.474,19.7472,10.194114150797628,-3.543349655506956,1e-24,1e-24
332.298,19.7295,10.194114150797628,-3.543349655506956,1e-24,1e-24
338.136,19.709,10.194114150797628,-3.543349655506956,1e-24,1e-24
343.99,19.6861,10.194114150797628,-3.543349655506956,1e-24,1e-24
349.858,19.6608,10.194114150797628,-3.543349655506956,1e-24,1e-24
355.741,19.6332,10.194114150797628,-3.543349655506956,1e-24,1e-24
361.638,19.6035,10.194114150797628,-3.543349655506956,1e-24,1e-24
367.551,19.5717,10.194114150797628,-3.543349655506956,1e-24,1e-24
373.478,19.5378,10.194114150797628,-3.543349655506956,1e-24,1e-24
379.42,19.5022,10.194114150797628,-3.543349655506956,1e-24,1e-24
385.378,19.4649,10.194114150797628,-3.543349655506956,1e-24,1e-24
391.35,19.426,10.194114150797628,-3.543349655506956,1e-24,1e-24
397.337,19.3857,10.194114150797628,-3.543349655506956,1e-24,1e-24
403.339,19.344,10.194114150797628,-3.543349655506956,1e-24,1e-24
409.357,19.301,10.194114150797628,-3.543349655506956,1e-24,1e-24
415.389,19.2569,10.194114150797628,-3.543349655506956,1e-24,1e-24
421.437,19.2118,10.194114150797628,-3.543349655506956,1e-24,1e-24
427.5,19.1657,10.194114150797628,-3.543349655506956,1e-24,1e-24
433.578,19.1187,10.194114150797628,-3.543349655506956,1e-24,1e-24
439.671,19.0709,10.194114150797628,-3.543349655506956,1e-24,1e-24
445.78,19.0223,10.194114150797628,-3.543349655506956,1e-24,1e-24
451.904,18.9731,10.194114150797628,-3.543349655506956,1e-24,1e-24
458.044,18.9232,10.194114150797628,-3.543349655506956,1e-24,1e-24
464.199,18.8728,10.194114150797628,-3.543349655506956,1e-24,1e-24
470.369,18.8218,10.194114150797628,-3.543349655506956,1e-24,1e-24
476.555,18.7704,10.194114150797628,-3.543349655506956,1e-24,1e-24
482.757,18.7185,10.194114150797628,-3.543349655506956,1e-24,1e-24
488.974,18.6661,10.194114150797628,-3.543349655506956,1e-24,1e-24
495.207,18.6134,10.194114150797628,-3.543349655506956,1e-24,1e-24
501.456,18.5603,10.194114150797628,-3.543349655506956,1e-24,1e-24
507.72,18.5069,10.194114150797628,-3.543349655506956,1e-24,1e-24
514.0,18.4531,10.194114150797628,-3.543349655506956,1e-24,1e-24
520.296,18.3991,10.194114150797628,-3.543349655506956,1e-24,1e-24
526.607,18.3448,10.194114150797628,-3.543349655506956,1e-24,1e-24
532.935,18.2902,10.194114150797628,-3.543349655506956,1e-24,1e-24
539.278,18.2354,10.194114150797628,-3.543349655506956,1e-24,1e-24
545.638,18.1803,10.194114150797628,-3.543349655506956,1e-24,1e-24
552.013,18.125,10.194114150797628,-3.543349655506956,1e-24,1e-24
558.405,18.0695,10.194114150797628,-3.543349655506956,1e-24,1e-24
564.812,18.0138,10.194114150797628,-3.543349655506956,1e-24,1e-24
571.236,17.9578,10.194114150797628,-3.543349655506956,1e-24,1e-24
577.676,17.9017,10.194114150797628,-3.543349655506956,1e-24,1e-24
584.132,17.8454,10.194114150797628,-3.543349655506956,1e-24,1e-24
590.604,17.7889,10.194114150797628,-3.543349655506956,1e-24,1e-24
597.092,17.7322,10.194114150797628,-3.543349655506956,1e-24,1e-24
603.597,17.6754,10.194114150797628,-3.543349655506956,1e-24,1e-24
610.119,17.6183,10.194114150797628,-3.543349655506956,1e-24,1e-24
616.656,17.5611,10.194114150797628,-3.543349655506956,1e-24,1e-24
623.21,17.5038,10.194114150797628,-3.543349655506956,1e-24,1e-24
629.781,17.4462,10.194114150797628,-3.543349655506956,1e-24,1e-24
636.368,17.3885,10.194114150797628,-3.543349655506956,1e-24,1e-24
642.972,17.3307,10.194114150797628,-3.543349655506956,1e-24,1e-24
649.592,17.2726,10.194114150797628,-3.543349655506956,1e-24,1e-24
656.229,17.2145,10.194114150797628,-3.543349655506956,1e-24,1e-24
662.883,17.1561,10.194114150797628,-3.543349655506956,1e-24,1e-24
669.553,17.0976,10.194114150797628,-3.543349655506956,1e-24,1e-24
676.24,17.039,10.194114150797628,-3.543349655506956,1e-24,1e-24
682.944,16.9802,10.194114150797628,-3.543349655506956,1e-24,1e-24
689.665,16.9212,10.194114150797628,-3.543349655506956,1e-24,1e-24
696.403,16.8621,10.194114150797628,-3.543349655506956,1e-24,1e-24
703.158,16.8028,10.194114150797628,-3.543349655506956,1e-24,1e-24
709.93,16.7434,10.194114150797628,-3.543349655506956,1e-24,1e-24
716.718,16.6838,10.194114150797628,-3.543349655506956,1e-24,1e-24
723.524,16.624,10.194114150797628,-3.543349655506956,1e-24,1e-24
730.347,16.5641,10.194114150797628,-3.543349655506956,1e-24,1e-24
737.187,16.5041,10.194114150797628,-3.543349655506956,1e-24,1e-24
744.045,16.4439,10.194114150797628,-3.543349655506956,1e-24,1e-24
750.919,16.3835,10.194114150797628,-3.543349655506956,1e-24,1e-24
757.811,16.323,10.194114150797628,-3.543349655506956,1e-24,1e-24
764.721,16.2623,10.194114150797628,-3.543349655506956,1e-24,1e-24
771.647,16.2015,10.194114150797628,-3.543349655506956,1e-24,1e-24
778.591,16.1405,10.194114150797628,-3.543349655506956,1e-24,1e-24
785.553,16.0794,10.194114150797628,-3.543349655506956,1e-24,1e-24
792.532,16.0181,10.194114150797628,-3.543349655506956,1e-24,1e-24
799.529,15.9566,10.194114150797628,-3.543349655506956,1e-24,1e-24
806.543,15.895,10.194114150797628,-3.543349655506956,1e-24,1e-24
813.575,15.8333,10.194114150797628,-3.543349655506956,1e-24,1e-24
820.624,15.7713,10.194114150797628,-3.543349655506956,1e-24,1e-24
827.692,15.7093,10.194114150797628,-3.543349655506956,1e-24,1e-24
834.777,15.647,10.194114150797628,-3.543349655506956,1e-24,1e-24
841.88,15.5846,10.194114150797628,-3.543349655506956,1e-24,1e-24
849.001,15.5221,10.194114150797628,-3.543349655506956,1e-24,1e-24
856.14,15.4593,10.194114150797628,-3.543349655506956,1e-24,1e-24
863.296,15.3965,10.194114150797628,-3.543349655506956,1e-24,1e-24
870.471,15.3334,10.194114150797628,-3.543349655506956,1e-24,1e-24
877.664,15.2702,10.194114150797628,-3.543349655506956,1e-24,1e-24
884.875,15.2069,10.194114150797628,-3.543349655506956,1e-24,1e-24
892.104,15.1434,10.194114150797628,-3.543349655506956,1e-24,1e-24
899.351,15.0797,10.194114150797628,-3.543349655506956,1e-24,1e-24
906.616,15.0158,10.194114150797628,-3.543349655506956,1e-24,1e-24
913.9,14.9518,10.194114150797628,-3.543349655506956,1e-24,1e-24
921.202,14.8877,10.194114150797628,-3.543349655506956,1e-24,1e-24
928.523,14.8233,10.194114150797628,-3.543349655506956,1e-24,1e-24
935.862,14.7588,10.194114150797628,-3.543349655506956,1e-24,1e-24
943.219,14.6942,10.194114150797628,-3.543349655506956,1e-24,1e-24
950.595,14.6293,10.194114150797628,-3.543349655506956,1e-24,1e-24
957.989,14.5644,10.194114150797628,-3.543349655506956,1e-24,1e-24
965.402,14.4992,10.194114150797628,-3.543349655506956,1e-24,1e-24
972.834,14.4339,10.194114150797628,-3.543349655506956,1e-24,1e-24
980.284,14.3684,10.194114150797628,-3.543349655506956,1e-24,1e-24
987.753,14.3027,10.194114150797628,-3.543349655506956,1e-24,1e-24
995.241,14.2369,10.194114150797628,-3.543349655506956,1e-24,1e-24
1002.75,14.1709,10.194114150797628,-3.543349655506956,1e-24,1e-24
1010.27,14.1048,10.194114150797628,-3.543349655506956,1e-24,1e-24
1017.82,14.0384,10.194114150797628,-3.543349655506956,1e-24,1e-24
1025.38,13.972,10.194114150797628,-3.543349655506956,1e-24,1e-24
1032.96,13.9053,10.194114150797628,-3.543349655506956,1e-24,1e-24
1040.57,13.8385,10.194114150797628,-3.543349655506956,1e-24,1e-24
1048.19,13.7715,10.194114150797628,-3.543349655506956,1e-24,1e-24
1055.83,13.7043,10.194114150797628,-3.543349655506956,1e-24,1e-24
1063.49,13.6369,10.194114150797628,-3.543349655506956,1e-24,1e-24
1071.17,13.5694,10.194114150797628,-3.543349655506956,1e-24,1e-24
1078.86,13.5017,10.194114150797628,-3.543349655506956,1e-24,1e-24
1086.58,13.4339,10.194114150797628,-3.543349655506956,1e-24,1e-24
1094.32,13.3658,10.194114150797628,-3.543349655506956,1e-24,1e-24
1102.07,13.2976,10.194114150797628,-3.543349655506956,1e-24,1e-24
1109.85,13.2293,10.194114150797628,-3.543349655506956,1e-24,1e-24
1117.64,13.1607,10.194114150797628,-3.543349655506956,1e-24,1e-24
1125.46,13.092,10.194114150797628,-3.543349655506956,1e-24,1e-24
1133.29,13.0231,10.194114150797628,-3.543349655506956,1e-24,1e-24
1141.15,12.954,10.194114150797628,-3.543349655506956,1e-24,1e-24
1149.02,12.8847,10.194114150797628,-3.543349655506956,1e-24,1e-24
1156.92,12.8153,10.194114150797628,-3.543349655506956,1e-24,1e-24
1164.83,12.7457,10.194114150797628,-3.543349655506956,1e-24,1e-24
1172.76,12.6759,10.194114150797628,-3.543349655506956,1e-24,1e-24
1180.72,12.606,10.194114150797628,-3.543349655506956,1e-24,1e-24
1188.69,12.5358,10.194114150797628,-3.543349655506956,1e-24,1e-24
1196.68,12.4655,10.194114150797628,-3.543349655506956,1e-24,1e-24
1204.7,12.395,10.194114150797628,-3.543349655506956,1e-24,1e-24
1212.73,12.3243,10.194114150797628,-3.543349655506956,1e-24,1e-24
1220.79,12.2535,10.194114150797628,-3.543349655506956,1e-24,1e-24
1228.86,12.1824,10.194114150797628,-3.543349655506956,1e-24,1e-24
1236.95,12.1112,10.194114150797628,-3.543349655506956,1e-24,1e-24
1245.07,12.0398,10.194114150797628,-3.543349655506956,1e-24,1e-24
1253.21,11.9682,10.194114150797628,-3.543349655506956,1e-24,1e-24
1261.36,11.8965,10.194114150797628,-3.543349655506956,1e-24,1e-24
1269.54,11.8245,10.194114150797628,-3.543349655506956,1e-24,1e-24
1277.74,11.7524,10.194114150797628,-3.543349655506956,1e-24,1e-24
1285.95,11.6801,10.194114150797628,-3.543349655506956,1e-24,1e-24
1294.19,11.6076,10.194114150797628,-3.543349655506956,1e-24,1e-24
1302.45,11.5349,10.194114150797628,-3.543349655506956,1e-24,1e-24
1310.73,11.462,10.194114150797628,-3.543349655506956,1e-24,1e-24
1319.03,11.389,10.194114150797628,-3.543349655506956,1e-24,1e-24
1327.35,11.3157,10.194114150797628,-3.543349655506956,1e-24,1e-24
1335.7,11.2423,10.194114150797628,-3.543349655506956,1e-24,1e-24
1344.06,11.1687,10.194114150797628,-3.543349655506956,1e-24,1e-24
1352.44,11.0949,10.194114150797628,-3.543349655506956,1e-24,1e-24
1360.85,11.0209,10.194114150797628,-3.543349655506956,1e-24,1e-24
1369.28,10.9467,10.194114150797628,-3.543349655506956,1e-24,1e-24
1377.73,10.8723,10.194114150797628,-3.543349655506956,1e-24,1e-24
1386.19,10.7978,10.194114150797628,-3.543349655506956,1e-24,1e-24
1394.69,10.723,10.194114150797628,-3.543349655506956,1e-24,1e-24
1403.2,10.6481,10.194114150797628,-3.543349655506956,1e-24,1e-24
1411.73,10.573,10.194114150797628,-3.543349655506956,1e-24,1e-24
1420.29,10.4976,10.194114117433127,-3.5433497497768354,1e-24,1e-24
1428.86,10.4221,10.194114117433127,-3.5433497497768354,1e-24,1e-24
1437.46,10.3464,10.194114150797628,-3.543349655506956,1e-24,1e-24
1446.08,10.2705,10.194114150797628,-3.543349655506956,1e-24,1e-24
1454.72,10.1944,10.194114150797628,-3.543349655506956,1e-24,1e-24
1463.39,10.1181,10.194114150797628,-3.543349655506956,1e-24,1e-24
1472.07,10.0417,10.194114150797628,-3.543349655506956,1e-24,1e-24
1480.78,9.96499,10.194114150797628,-3.543349655506956,1e-24,1e-24
1489.51,9.88812,10.194114150797628,-3.543349655506956,1e-24,1e-24
1498.26,9.81105,10.194114150797628,-3.543349655506956,1e-24,1e-24
1507.03,9.73379,10.194114117433127,-3.5433497497768354,1e-24,1e-24
1515.83,9.65633,10.194114150797628,-3.543349655506956,1e-24,1e-24
1524.64,9.57867,10.194114150797628,-3.543349655506956,1e-24,1e-24
1533.48,9.50081,10.194114150797628,-3.543349655506956,1e-24,1e-24
1542.34,9.42276,10.194114150797628,-3.543349655506956,1e-24,1e-24
1551.23,9.3445,10.194114150797628,-3.543349655506956,1e-24,1e-24
1560.13,9.26605,10.194114150797628,-3.543349655506956,1e-24,1e-24
1569.06,9.1874,10.194114150797628,-3.543349655506956,1e-24,1e-24
1578.01,9.10854,10.194114150797628,-3.543349655506956,1e-24,1e-24
1586.99,9.02949,10.194114150797628,-3.543349655506956,1e-24,1e-24
1595.98,8.95023,10.194114150797628,-3.543349655506956,1e-24,1e-24
1605.0,8.87077,10.194114150797628,-3.543349655506956,1e-24,1e-24
1614.04,8.79111,10.194114150797628,-3.543349655506956,1e-24,1e-24
1623.11,8.71124,10.194114150797628,-3.543349655506956,1e-24,1e-24
1632.2,8.63117,10.194114150797628,-3.543349655506956,1e-24,1e-24
1641.31,8.5509,10.194114150797628,-3.543349655506956,1e-24,1e-24
1650.44,8.47042,10.194114150797628,-3.543349655506956,1e-24,1e-24
1659.59,8.38974,10.194114150797628,-3.543349655506956,1e-24,1e-24
1668.77,8.30885,10.194114150797628,-3.543349655506956,1e-24,1e-24
1677.98,8.22775,10.194114150797628,-3.543349655506956,1e-24,1e-24
1687.2,8.14645,10.194114150797628,-3.543349655506956,1e-24,1e-24
1696.45,8.06494,10.194114150797628,-3.543349655506956,1e-24,1e-24
1705.72,7.98322,10.194114150797628,-3.543349655506956,1e-24,1e-24
1715.02,7.9013,10.194114150797628,-3.543349655506956,1e-24,1e-24
1724.34,7.81916,10.194114150797628,-3.543349655506956,1e-24,1e-24
1733.68,7.73681,10.194114150797628,-3.543349655506956,1e-24,1e-24
1743.04,7.65426,10.194114150797628,-3.543349655506956,1e-24,1e-24
1752.43,7.57149,10.194114150797628,-3.543349655506956,1e-24,1e-24
1761.85,7.48851,10.194114150797628,-3.543349655506956,1e-24,1e-24
1771.28,7.40532,10.194114150797628,-3.543349655506956,1e-24,1e-24
1780.74,7.32192,10.194114150797628,-3.543349655506956,1e-24,1e-24
1790.23,7.2383,10.194114150797628,-3.543349655506956,1e-24,1e-24
1799.73,7.15448,10.194114150797628,-3.543349655506956,1e-24,1e-24
1809.27,7.07043,10.194114150797628,-3.543349655506956,1e-24,1e-24
1818.82,6.98617,10.194114150797628,-3.543349655506956,1e-24,1e-24
1828.4,6.9017,10.194114150797628,-3.543349655506956,1e-24,1e-24
1838.01,6.81701,10.194114150797628,-3.543349655506956,1e-24,1e-24
1847.63,6.73211,10.194114150797628,-3.543349655506956,1e-24,1e-24
1857.29,6.64699,10.194114150797628,-3.543349655506956,1e-24,1e-24
1866.96,6.56165,10.194114150797628,-3.543349655506956,1e-24,1e-24
1876.66,6.47609,10.194114150797628,-3.543349655506956,1e-24,1e-24
1886.39,6.39032,10.194114150797628,-3.543349655506956,1e-24,1e-24
1896.14,6.30432,10.194114150797628,-3.543349655506956,1e-24,1e-24
1905.92,6.21811,10.194114150797628,-3.543349655506956,1e-24,1e-24
1915.71,6.13167,10.194114150797628,-3.543349655506956,1e-24,1e-24
1925.54,6.04502,10.194114150797628,-3.543349655506956,1e-24,1e-24
1935.39,5.95814,10.194114150797628,-3.543349655506956,1e-24,1e-24
1945.26,5.87104,10.194114150797628,-3.543349655506956,1e-24,1e-24
1955.16,5.78372,10.194114150797628,-3.543349655506956,1e-24,1e-24
1965.08,5.69618,10.194114150797628,-3.543349655506956,1e-24,1e-24
1975.03,5.60841,10.194114150797628,-3.543349655506956,1e-24,1e-24
1985.01,5.5204,10.194114150797628,-3.543349655506956,1e-24,1e-24
1995.0,5.43222,10.194114150797628,-3.543349655506956,1e-24,1e-24
2005.0,5.34422,10.194114150797628,-3.543349655506956,1e-24,1e-24
2018.56,5.22509,10.194114150797628,-3.543349655506956,1e-24,1e-24
2041.8,5.02064,10.194114150797628,-3.543349655506956,1e-24,1e-24
2081.59,4.66929,10.194114150797628,-3.543349655506956,1e-24,1e-24
2149.73,4.06746,10.194114150797628,-3.543349655506956,1e-24,1e-24
2266.33,3.03753,10.194114150797628,-3.543349655506956,1e-24,1e-24
2465.65,1.27576,10.194114150797628,-3.543349655506956,1e-24,1e-24
2805.8,-1.73264,10.194114150797628,-3.543349655506956,1e-24,1e-24
3384.56,-6.86089,10.194114150797628,-3.543349655506956,1e-24,1e-24
4364.2,-15.5668,10.194114150797628,-3.543349655506956,1e-24,1e-24
6007.39,-30.2399,10.194114150797628,-3.543349655506956,1e-24,1e-24
8718.86,-54.6428,10.194114150797628,-3.543349655506956,1e-24,1e-24
13201.2,-95.5018,10.194114150797628,-3.543349655506956,8.8081e-21,8.3363e-23
21000.0,-168.099,10.194114150797628,-3.543349655506956,3.27008e-11,5.16066e-13
21010.0,-168.099,10.194114150797628,-3.543349655506956,3.27008e-11,5.16066e-13
