Altitude,Temperature,u,v,k,eps
7.51041,21.0719,5.183927671657617,1.0241059884223074,0.122673,0.00284905
12.5348,21.0246,5.466891297933681,1.0613939168268327,0.114149,0.00159162
17.5691,20.9774,5.661462381913237,1.0814590676864748,0.10694,0.00106926
22.616,20.9303,5.812173399995329,1.092862173783476,0.100612,0.000792913
27.6757,20.8833,5.937250189634363,1.0989754375265715,0.0948257,0.00062498
32.748,20.8364,6.045952709677725,1.1013869590841254,0.0893969,0.000513742
37.8331,20.7897,6.14373201252503,1.100903601354423,0.0842212,0.00043588
42.931,20.7431,6.234144111193073,1.0979705288288626,0.0792355,0.000379154
48.0418,20.6968,6.319663939509836,1.0927710514828881,0.0744026,0.000336348
53.1654,20.6508,6.40210323593463,1.0853153553393327,0.0697015,0.000303126
58.3018,20.605,6.482844476834837,1.0755164973500184,0.0651221,0.000276724
63.4512,20.5596,6.563021847265167,1.0631833642980475,0.0606625,0.000255287
68.6136,20.5145,6.643579081423967,1.0480018451156883,0.0563268,0.000237517
73.7889,20.4699,6.725308067114793,1.0295896915765506,0.0521232,0.000222468
78.9773,20.4258,6.808880949895006,1.0074411168186865,0.0480627,0.000209428
84.1787,20.3823,6.894856092604032,0.9809663489035046,0.0441576,0.000197846
89.3932,20.3394,6.983622673886451,0.9494595266671767,0.0404197,0.00018729
94.6208,20.2972,7.075436312889453,0.9121337836333602,0.0368584,0.000177415
99.8615,20.2557,7.170363667785924,0.8680891438646067,0.0334801,0.00016795
105.115,20.2151,7.268210778066947,0.8163738829675224,0.0302865,0.000158685
110.383,20.1755,7.368569526726307,0.7559573019029893,0.027275,0.000149461
115.663,20.1369,7.470752891178592,0.6857698213298021,0.0244394,0.000140159
120.957,20.0995,7.573737102802878,0.6047218092867883,0.0217713,0.000130698
126.264,20.0634,7.676202690383707,0.511707510054276,0.0192619,0.000121024
131.584,20.0286,7.776421778962607,0.4056624762977884,0.0169034,0.000111114
136.918,19.9953,7.872249691330417,0.2855749473398355,0.0146901,0.000100974
142.265,19.9636,7.961016716525001,0.15057294647279557,0.0126177,9.06492e-05
147.626,19.9337,8.039428276836606,1.2571986012401714e-17,0.0106829,8.01961e-05
153.0,19.9057,8.103432582352033,-0.16632221341567135,0.00889218,6.96597e-05
158.387,19.8797,8.14796588360077,-0.3476368071909355,0.00725072,5.91584e-05
163.788,19.8558,8.1670235002775,-0.5419145059795585,0.00575898,4.88652e-05
169.203,19.8342,8.153550905586647,-0.7453012532574872,0.00442179,3.89603e-05
174.632,19.8148,8.099551599323686,-0.9508652993553369,0.00324658,2.9652e-05
180.074,19.7977,7.996582685385726,-1.146918905152315,0.00223481,2.11281e-05
185.529,19.7831,7.8374447607004365,-1.3138568298735103,0.001397,1.36419e-05
190.999,19.7709,7.620795760681577,-1.4187038847478741,0.000736646,7.42243e-06
196.482,19.7611,7.366274917265937,-1.4039384837377034,0.000257124,2.66808e-06
201.979,19.7538,7.200799383937406,-1.1624338409505954,4.87068e-07,9.9823e-09
207.49,19.7488,7.300483017854387,-1.1519560842557939,1.96122e-11,2.61429e-13
213.014,19.7462,7.365722641723559,-1.0259630066536929,7.3834e-16,7.26116e-18
218.553,19.7457,7.358004822777805,-1.1777983813826427,3.18433e-20,2.66838e-22
224.105,19.7471,7.290798714492379,-1.1339426892775404,1e-24,1e-24
229.672,19.7501,7.282644975712611,-1.126645028976367,1e-24,1e-24
235.252,19.7545,7.2821353650489025,-1.1261344038972392,1e-24,1e-24
240.847,19.76,7.282108605149741,-1.1261106518910737,1e-24,1e-24
246.456,19.7662,7.282108694542665,-1.12611005858769,1e-24,1e-24
252.078,19.7728,7.282108694542665,-1.12611005858769,1e-24,1e-24
257.715,19.7795,7.282108694542665,-1.12611005858769,1e-24,1e-24
263.366,19.7857,7.282108694542665,-1.12611005858769,1e-24,1e-24
269.031,19.7913,7.282108694542665,-1.12611005858769,1e-24,1e-24
274.711,19.7958,7.282108694542665,-1.12611005858769,1e-24,1e-24
280.405,19.799,7.282108694542665,-1.12611005858769,1e-24,1e-24
286.113,19.8005,7.282108694542665,-1.12611005858769,1e-24,1e-24
291.835,19.8,7.282108694542665,-1.12611005858769,1e-24,1e-24
297.572,19.7975,7.282108694542665,-1.12611005858769,1e-24,1e-24
303.323,19.7924,7.282108694542665,-1.12611005858769,1e-24,1e-24
309.089,19.7849,7.282108694542665,-1.12611005858769,1e-24,1e-24
314.869,19.7749,7.282108694542665,-1.12611005858769,1e-24,1e-24
320.664,19.7623,7.282108694542665,-1.12611005858769,1e-24,1e-24
326.474,19.7472,7.282108694542665,-1.12611005858769,1e-24,1e-24
332.298,19.7295,7.282108694542665,-1.12611005858769,1e-24,1e-24
338.136,19.709,7.282108694542665,-1.12611005858769,1e-24,1e-24
343.99,19.6861,7.282108694542665,-1.12611005858769,1e-24,1e-24
349.858,19.6608,7.282108694542665,-1.12611005858769,1e-24,1e-24
355.741,19.6332,7.282108694542665,-1.12611005858769,1e-24,1e-24
361.638,19.6035,7.282108694542665,-1.12611005858769,1e-24,1e-24
367.551,19.5717,7.282108694542665,-1.12611005858769,1e-24,1e-24
373.478,19.5378,7.282108694542665,-1.12611005858769,1e-24,1e-24
379.42,19.5022,7.282108694542665,-1.12611005858769,1e-24,1e-24
385.378,19.4649,7.282108694542665,-1.12611005858769,1e-24,1e-24
391.35,19.426,7.282108694542665,-1.12611005858769,1e-24,1e-24
397.337,19.3857,7.282108694542665,-1.12611005858769,1e-24,1e-24
403.339,19.344,7.282108694542665,-1.12611005858769,1e-24,1e-24
409.357,19.301,7.282108709441486,-1.1261099597037927,1e-24,1e-24
415.389,19.2569,7.282108709441486,-1.1261099597037927,1e-24,1e-24
421.437,19.2118,7.282108694542665,-1.12611005858769,1e-24,1e-24
427.5,19.1657,7.282108694542665,-1.12611005858769,1e-24,1e-24
433.578,19.1187,7.282108694542665,-1.12611005858769,1e-24,1e-24
439.671,19.0709,7.282108694542665,-1.12611005858769,1e-24,1e-24
445.78,19.0223,7.282108694542665,-1.12611005858769,1e-24,1e-24
451.904,18.9731,7.282108694542665,-1.12611005858769,1e-24,1e-24
458.044,18.9232,7.282108709441486,-1.1261099597037927,1e-24,1e-24
464.199,18.8728,7.282108709441486,-1.1261099597037927,1e-24,1e-24
470.369,18.8218,7.282108709441486,-1.1261099597037927,1e-24,1e-24
476.555,18.7704,7.282108694542665,-1.12611005858769,1e-24,1e-24
482.757,18.7185,7.282108694542665,-1.12611005858769,1e-24,1e-24
488.974,18.6661,7.282108694542665,-1.12611005858769,1e-24,1e-24
495.207,18.6134,7.282108694542665,-1.12611005858769,1e-24,1e-24
501.456,18.5603,7.282108694542665,-1.12611005858769,1e-24,1e-24
507.72,18.5069,7.282108694542665,-1.12611005858769,1e-24,1e-24
514.0,18.4531,7.282108694542665,-1.12611005858769,1e-24,1e-24
520.296,18.3991,7.282108709441486,-1.1261099597037927,1e-24,1e-24
526.607,18.3448,7.282108709441486,-1.1261099597037927,1e-24,1e-24
532.935,18.2902,7.282108709441486,-1.1261099597037927,1e-24,1e-24
539.278,18.2354,7.282108709441486,-1.1261099597037927,1e-24,1e-24
545.638,18.1803,7.282108709441486,-1.1261099597037927,1e-24,1e-24
552.013,18.125,7.282108709441486,-1.1261099597037927,1e-24,1e-24
558.405,18.0695,7.282108709441486,-1.1261099597037927,1e-24,1e-24
564.812,18.0138,7.282108709441486,-1.1261099597037927,1e-24,1e-24
571.236,17.9578,7.282108709441486,-1.1261099597037927,1e-24,1e-24
577.676,17.9017,7.282108709441486,-1.1261099597037927,1e-24,1e-24
584.132,17.8454,7.282108709441486,-1.1261099597037927,1e-24,1e-24
590.604,17.7889,7.282108709441486,-1.1261099597037927,1e-24,1e-24
597.092,17.7322,7.282108694542665,-1.12611005858769,1e-24,1e-24
603.597,17.6754,7.282108694542665,-1.12611005858769,1e-24,1e-24
610.119,17.6183,7.282108694542665,-1.12611005858769,1e-24,1e-24
616.656,17.5611,7.282108694542665,-1.12611005858769,1e-24,1e-24
623.21,17.5038,7.282108694542665,-1.12611005858769,1e-24,1e-24
629.781,17.4462,7.282108709441486,-1.1261099597037927,1e-24,1e-24
636.368,17.3885,7.282108709441486,-1.1261099597037927,1e-24,1e-24
642.972,17.3307,7.282108709441486,-1.1261099597037927,1e-24,1e-24
649.592,17.2726,7.282108694542665,-1.12611005858769,1e-24,1e-24
656.229,17.2145,7.282108694542665,-1.12611005858769,1e-24,1e-24
662.883,17.1561,7.282108694542665,-1.12611005858769,1e-24,1e-24
669.553,17.0976,7.282108694542665,-1.12611005858769,1e-24,1e-24
676.24,17.039,7.282108694542665,-1.12611005858769,1e-24,1e-24
682.944,16.9802,7.282108694542665,-1.12611005858769,1e-24,1e-24
689.665,16.9212,7.282108694542665,-1.12611005858769,1e-24,1e-24
696.403,16.8621,7.282108709441486,-1.1261099597037927,1e-24,1e-24
703.158,16.8028,7.282108709441486,-1.1261099597037927,1e-24,1e-24
709.93,16.7434,7.282108709441486,-1.1261099597037927,1e-24,1e-24
716.718,16.6838,7.282108694542665,-1.12611005858769,1e-24,1e-24
723.524,16.624,7.282108694542665,-1.12611005858769,1e-24,1e-24
730.347,16.5641,7.282108694542665,-1.12611005858769,1e-24,1e-24
737.187,16.5041,7.282108694542665,-1.12611005858769,1e-24,1e-24
744.045,16.4439,7.282108709441486,-1.1261099597037927,1e-24,1e-24
750.919,16.3835,7.282108709441486,-1.1261099597037927,1e-24,1e-24
757.811,16.323,7.282108709441486,-1.1261099597037927,1e-24,1e-24
764.721,16.2623,7.282108709441486,-1.1261099597037927,1e-24,1e-24
771.647,16.2015,7.282108709441486,-1.1261099597037927,1e-24,1e-24
778.591,16.1405,7.282108694542665,-1.12611005858769,1e-24,1e-24
785.553,16.0794,7.282108694542665,-1.12611005858769,1e-24,1e-24
792.532,16.0181,7.282108694542665,-1.12611005858769,1e-24,1e-24
799.529,15.9566,7.282108694542665,-1.12611005858769,1e-24,1e-24
806.543,15.895,7.282108694542665,-1.12611005858769,1e-24,1e-24
813.575,15.8333,7.282108709441486,-1.1261099597037927,1e-24,1e-24
820.624,15.7713,7.282108709441486,-1.1261099597037927,1e-24,1e-24
827.692,15.7093,7.282108694542665,-1.12611005858769,1e-24,1e-24
834.777,15.647,7.282108694542665,-1.12611005858769,1e-24,1e-24
841.88,15.5846,7.282108694542665,-1.12611005858769,1e-24,1e-24
849.001,15.5221,7.282108694542665,-1.12611005858769,1e-24,1e-24
856.14,15.4593,7.282108694542665,-1.12611005858769,1e-24,1e-24
863.296,15.3965,7.282108694542665,-1.12611005858769,1e-24,1e-24
870.471,15.3334,7.282108694542665,-1.12611005858769,1e-24,1e-24
877.664,15.2702,7.282108694542665,-1.12611005858769,1e-24,1e-24
884.875,15.2069,7.282108694542665,-1.12611005858769,1e-24,1e-24
892.104,15.1434,7.282108694542665,-1.12611005858769,1e-24,1e-24
899.351,15.0797,7.282108694542665,-1.12611005858769,1e-24,1e-24
906.616,15.0158,7.282108694542665,-1.12611005858769,1e-24,1e-24
913.9,14.9518,7.282108694542665,-1.12611005858769,1e-24,1e-24
921.202,14.8877,7.282108694542665,-1.12611005858769,1e-24,1e-24
928.523,14.8233,7.282108694542665,-1.12611005858769,1e-24,1e-24
935.862,14.7588,7.282108694542665,-1.12611005858769,1e-24,1e-24
943.219,14.6942,7.282108694542665,-1.12611005858769,1e-24,1e-24
950.595,14.6293,7.282108694542665,-1.12611005858769,1e-24,1e-24
957.989,14.5644,7.282108709441486,-1.1261099597037927,1e-24,1e-24
965.402,14.4992,7.282108694542665,-1.12611005858769,1e-24,1e-24
972.834,14.4339,7.282108694542665,-1.12611005858769,1e-24,1e-24
980.284,14.3684,7.282108694542665,-1.12611005858769,1e-24,1e-24
987.753,14.3027,7.282108694542665,-1.12611005858769,1e-24,1e-24
995.241,14.2369,7.282108694542665,-1.12611005858769,1e-24,1e-24
1002.75,14.1709,7.282108694542665,-1.12611005858769,1e-24,1e-24
1010.27,14.1048,7.282108694542665,-1.12611005858769,1e-24,1e-24
1017.82,14.0384,7.282108709441486,-1.1261099597037927,1e-24,1e-24
1025.38,13.972,7.282108709441486,-1.1261099597037927,1e-24,1e-24
1032.96,13.9053,7.282108709441486,-1.1261099597037927,1e-24,1e-24
1040.57,13.8385,7.282108694542665,-1.12611005858769,1e-24,1e-24
1048.19,13.7715,7.282108694542665,-1.12611005858769,1e-24,1e-24
1055.83,13.7043,7.282108694542665,-1.12611005858769,1e-24,1e-24
1063.49,13.6369,7.282108694542665,-1.12611005858769,1e-24,1e-24
1071.17,13.5694,7.282108694542665,-1.12611005858769,1e-24,1e-24
1078.86,13.5017,7.282108694542665,-1.12611005858769,1e-24,1e-24
1086.58,13.4339,7.282108694542665,-1.12611005858769,1e-24,1e-24
1094.32,13.3658,7.282108694542665,-1.12611005858769,1e-24,1e-24
1102.07,13.2976,7.282108694542665,-1.12611005858769,1e-24,1e-24
1109.85,13.2293,7.282108694542665,-1.12611005858769,1e-24,1e-24
1117.64,13.1607,7.282108679643844,-1.1261101574715873,1e-24,1e-24
1125.46,13.092,7.282108679643844,-1.1261101574715873,1e-24,1e-24
1133.29,13.0231,7.282108679643844,-1.1261101574715873,1e-24,1e-24
1141.15,12.954,7.282108679643844,-1.1261101574715873,1e-24,1e-24
1149.02,12.8847,7.282108694542665,-1.12611005858769,1e-24,1e-24
1156.92,12.8153,7.282108694542665,-1.12611005858769,1e-24,1e-24
1164.83,12.7457,7.282108694542665,-1.12611005858769,1e-24,1e-24
1172.76,12.6759,7.282108679643844,-1.1261101574715873,1e-24,1e-24
1180.72,12.606,7.282108679643844,-1.1261101574715873,1e-24,1e-24
1188.69,12.5358,7.2821086647450235,-1.1261102563554846,1e-24,1e-24
1196.68,12.4655,7.2821086647450235,-1.1261102563554846,1e-24,1e-24
1204.7,12.395,7.2821086498462035,-1.1261103552393819,1e-24,1e-24
1212.73,12.3243,7.2821086647450235,-1.1261102563554846,1e-24,1e-24
1220.79,12.2535,7.2821086647450235,-1.1261102563554846,1e-24,1e-24
1228.86,12.1824,7.282108679643844,-1.1261101574715873,1e-24,1e-24
1236.95,12.1112,7.282108694542665,-1.12611005858769,1e-24,1e-24
1245.07,12.0398,7.282108679643844,-1.1261101574715873,1e-24,1e-24
1253.21,11.9682,7.2821086647450235,-1.1261102563554846,1e-24,1e-24
1261.36,11.8965,7.2821086498462035,-1.1261103552393819,1e-24,1e-24
1269.54,11.8245,7.282108634947383,-1.1261104541232791,1e-24,1e-24
1277.74,11.7524,7.282108634947383,-1.1261104541232791,1e-24,1e-24
1285.95,11.6801,7.2821086498462035,-1.1261103552393819,1e-24,1e-24
1294.19,11.6076,7.2821086647450235,-1.1261102563554846,1e-24,1e-24
1302.45,11.5349,7.282108679643844,-1.1261101574715873,1e-24,1e-24
1310.73,11.462,7.282108694542665,-1.12611005858769,1e-24,1e-24
1319.03,11.389,7.282108679643844,-1.1261101574715873,1e-24,1e-24
1327.35,11.3157,7.2821086498462035,-1.1261103552393819,1e-24,1e-24
1335.7,11.2423,7.282108634947383,-1.1261104541232791,1e-24,1e-24
1344.06,11.1687,7.282108620048562,-1.1261105530071764,1e-24,1e-24
1352.44,11.0949,7.282108620048562,-1.1261105530071764,1e-24,1e-24
1360.85,11.0209,7.282108634947383,-1.1261104541232791,1e-24,1e-24
1369.28,10.9467,7.2821086498462035,-1.1261103552393819,1e-24,1e-24
1377.73,10.8723,7.282108679643844,-1.1261101574715873,1e-24,1e-24
1386.19,10.7978,7.282108694542665,-1.12611005858769,1e-24,1e-24
1394.69,10.723,7.2821086647450235,-1.1261102563554846,1e-24,1e-24
1403.2,10.6481,7.2821086498462035,-1.1261103552393819,1e-24,1e-24
1411.73,10.573,7.282108620048562,-1.1261105530071764,1e-24,1e-24
1420.29,10.4976,7.282108605149741,-1.1261106518910737,1e-24,1e-24
1428.86,10.4221,7.282108605149741,-1.1261106518910737,1e-24,1e-24
1437.46,10.3464,7.282108620048562,-1.1261105530071764,1e-24,1e-24
1446.08,10.2705,7.282108634947383,-1.1261104541232791,1e-24,1e-24
1454.72,10.1944,7.2821086647450235,-1.1261102563554846,1e-24,1e-24
1463.39,10.1181,7.282108694542665,-1.12611005858769,1e-24,1e-24
1472.07,10.0417,7.282108679643844,-1.1261101574715873,1e-24,1e-24
1480.78,9.96499,7.2821086498462035,-1.1261103552393819,1e-24,1e-24
1489.51,9.88812,7.282108634947383,-1.1261104541232791,1e-24,1e-24
1498.26,9.81105,7.282108620048562,-1.1261105530071764,1e-24,1e-24
1507.03,9.73379,7.282108620048562,-1.1261105530071764,1e-24,1e-24
1515.83,9.65633,7.282108620048562,-1.1261105530071764,1e-24,1e-24
1524.64,9.57867,7.2821086498462035,-1.1261103552393819,1e-24,1e-24
1533.48,9.50081,7.282108679643844,-1.1261101574715873,1e-24,1e-24
1542.34,9.42276,7.282108694542665,-1.12611005858769,1e-24,1e-24
1551.23,9.3445,7.282108679643844,-1.1261101574715873,1e-24,1e-24
1560.13,9.26605,7.2821086498462035,-1.1261103552393819,1e-24,1e-24
1569.06,9.1874,7.282108634947383,-1.1261104541232791,1e-24,1e-24
1578.01,9.10854,7.282108620048562,-1.1261105530071764,1e-24,1e-24
1586.99,9.02949,7.282108634947383,-1.1261104541232791,1e-24,1e-24
1595.98,8.95023,7.282108634947383,-1.1261104541232791,1e-24,1e-24
1605.0,8.87077,7.2821086647450235,-1.1261102563554846,1e-24,1e-24
1614.04,8.79111,7.282108679643844,-1.1261101574715873,1e-24,1e-24
1623.11,8.71124,7.282108694542665,-1.12611005858769,1e-24,1e-24
1632.2,8.63117,7.2821086647450235,-1.1261102563554846,1e-24,1e-24
1641.31,8.5509,7.2821086498462035,-1.1261103552393819,1e-24,1e-24
1650.44,8.47042,7.282108634947383,-1.1261104541232791,1e-24,1e-24
1659.59,8.38974,7.282108634947383,-1.1261104541232791,1e-24,1e-24
1668.77,8.30885,7.282108634947383,-1.1261104541232791,1e-24,1e-24
1677.98,8.22775,7.282108634947383,-1.1261104541232791,1e-24,1e-24
1687.2,8.14645,7.2821086498462035,-1.1261103552393819,1e-24,1e-24
1696.45,8.06494,7.282108679643844,-1.1261101574715873,1e-24,1e-24
1705.72,7.98322,7.282108694542665,-1.12611005858769,1e-24,1e-24
1715.02,7.9013,7.282108694542665,-1.12611005858769,1e-24,1e-24
1724.34,7.81916,7.282108679643844,-1.1261101574715873,1e-24,1e-24
1733.68,7.73681,7.282108679643844,-1.1261101574715873,1e-24,1e-24
1743.04,7.65426,7.2821086647450235,-1.1261102563554846,1e-24,1e-24
1752.43,7.57149,7.2821086647450235,-1.1261102563554846,1e-24,1e-24
1761.85,7.48851,7.282108679643844,-1.1261101574715873,1e-24,1e-24
1771.28,7.40532,7.282108694542665,-1.12611005858769,1e-24,1e-24
1780.74,7.32192,7.282108694542665,-1.12611005858769,1e-24,1e-24
1790.23,7.2383,7.282108694542665,-1.12611005858769,1e-24,1e-24
1799.73,7.15448,7.282108679643844,-1.1261101574715873,1e-24,1e-24
1809.27,7.07043,7.2821086647450235,-1.1261102563554846,1e-24,1e-24
1818.82,6.98617,7.2821086647450235,-1.1261102563554846,1e-24,1e-24
1828.4,6.9017,7.2821086647450235,-1.1261102563554846,1e-24,1e-24
1838.01,6.81701,7.282108679643844,-1.1261101574715873,1e-24,1e-24
1847.63,6.73211,7.282108694542665,-1.12611005858769,1e-24,1e-24
1857.29,6.64699,7.282108694542665,-1.12611005858769,1e-24,1e-24
1866.96,6.56165,7.282108679643844,-1.1261101574715873,1e-24,1e-24
1876.66,6.47609,7.2821086647450235,-1.1261102563554846,1e-24,1e-24
1886.39,6.39032,7.2821086498462035,-1.1261103552393819,1e-24,1e-24
1896.14,6.30432,7.282108634947383,-1.1261104541232791,1e-24,1e-24
1905.92,6.21811,7.282108620048562,-1.1261105530071764,1e-24,1e-24
1915.71,6.13167,7.282108620048562,-1.1261105530071764,1e-24,1e-24
1925.54,6.04502,7.282108620048562,-1.1261105530071764,1e-24,1e-24
1935.39,5.95814,7.282108620048562,-1.1261105530071764,1e-24,1e-24
1945.26,5.87104,7.282108634947383,-1.1261104541232791,1e-24,1e-24
1955.16,5.78372,7.2821086498462035,-1.1261103552393819,1e-24,1e-24
1965.08,5.69618,7.282108679643844,-1.1261101574715873,1e-24,1e-24
1975.03,5.60841,7.282108694542665,-1.12611005858769,1e-24,1e-24
1985.01,5.5204,7.282108694542665,-1.12611005858769,1e-24,1e-24
1995.0,5.43222,7.282108679643844,-1.1261101574715873,1e-24,1e-24
2005.0,5.34422,7.282108679643844,-1.1261101574715873,1e-24,1e-24
2018.56,5.22509,7.282108694542665,-1.12611005858769,1e-24,1e-24
2041.8,5.02064,7.282108709441486,-1.1261099597037927,1e-24,1e-24
2081.59,4.66929,7.282108709441486,-1.1261099597037927,1e-24,1e-24
2149.73,4.06746,7.282108709441486,-1.1261099597037927,1e-24,1e-24
2266.33,3.03753,7.282108709441486,-1.1261099597037927,1e-24,1e-24
2465.65,1.27576,7.282108709441486,-1.1261099597037927,1e-24,1e-24
2805.8,-1.73264,7.282108709441486,-1.1261099597037927,1e-24,1e-24
3384.56,-6.86089,7.282108709441486,-1.1261099597037927,1e-24,1e-24
4364.2,-15.5668,7.282108709441486,-1.1261099597037927,1e-24,1e-24
6007.39,-30.2399,7.282108709441486,-1.1261099597037927,1e-24,1e-24
8718.86,-54.6428,7.282108709441486,-1.1261099597037927,1e-24,1e-24
13201.2,-95.5018,7.282108709441486,-1.1261099597037927,8.01745e-21,6.07671e-23
21000.0,-168.099,7.282108694542665,-1.12611005858769,3.27009e-11,5.16066e-13
21010.0,-168.099,7.282108694542665,-1.12611005858769,3.27009e-11,5.16066e-13
