Altitude,Temperature,u,v,k,eps
7.51041,21.0719,7.382032819100122,0.9771998220572491,0.1695,0.00458638
12.5348,21.0246,7.712554829883906,1.0019250922770815,0.158634,0.00256923
17.5691,20.9774,7.938528986397878,1.0131682941252556,0.149462,0.00173012
22.616,20.9303,8.11254315376867,1.0176639091277124,0.141436,0.00128537
27.6757,20.8833,8.256014134149257,1.0180136070444723,0.13411,0.00101436
32.748,20.8364,8.379796034179423,1.0154255141322894,0.127239,0.000834066
37.8331,20.7897,8.490172783846761,1.0105198915547084,0.120688,0.000706971
42.931,20.7431,8.591208963520993,1.003621217998391,0.114373,0.000613896
48.0418,20.6968,8.685731069932634,0.9948431430667265,0.10824,0.000543636
53.1654,20.6508,8.775814181579015,0.9841926831655771,0.102258,0.000489141
58.3018,20.605,8.863027037485645,0.971576254803736,0.0964078,0.000445934
63.4512,20.5596,8.948631526791772,0.9568343719308801,0.0906812,0.000411025
68.6136,20.5145,9.03366762605785,0.939705789922739,0.0850778,0.000382337
73.7889,20.4699,9.118995496324601,0.9198909708284186,0.079603,0.000358368
78.9773,20.4258,9.205406335530526,0.8969911593067517,0.0742671,0.000337998
84.1787,20.3823,9.293553519281575,0.8705209685866503,0.0690835,0.000320361
89.3932,20.3394,9.383999140960116,0.8399405366213814,0.0640674,0.000304773
94.6208,20.2972,9.477191588731664,0.8045884648525682,0.0592345,0.000290683
99.8615,20.2557,9.573466496478003,0.7637426384019542,0.0545986,0.00027764
105.115,20.2151,9.672993962643993,0.7166095419772758,0.0501707,0.000265273
110.383,20.1755,9.775753482188739,0.6622983447622165,0.0459572,0.000253284
115.663,20.1369,9.881546532545956,0.5998897596467423,0.0419594,0.000241432
120.957,20.0995,9.989922320410622,0.5284191180887373,0.0381738,0.00022953
126.264,20.0634,10.10020909083203,0.44688081316390155,0.0345926,0.000217434
131.584,20.0286,10.211430987900654,0.35427399261348735,0.0312059,0.000205041
136.918,19.9953,10.322394790049948,0.24957653986237302,0.0280026,0.000192285
142.265,19.9636,10.431500361375612,0.1318203820373969,0.0249707,0.000179143
147.626,19.9337,10.537018733612463,3.0910206047058537e-17,0.0221002,0.0001656
153.0,19.9057,10.636460841906104,-0.14671053369855896,0.0193918,0.000151603
158.387,19.8797,10.727182234613762,-0.30887493486349726,0.0168467,0.000137186
163.788,19.8558,10.805501336331547,-0.4866132141004678,0.014461,0.00012248
169.203,19.8342,10.86769933313394,-0.6796929429530046,0.0122367,0.000107633
174.632,19.8148,10.9087970961206,-0.8869905666188163,0.0101776,9.28188e-05
180.074,19.7977,10.923391948491833,-1.1063627576851907,0.00828851,7.82392e-05
185.529,19.7831,10.905279087546528,-1.3339367833392095,0.00657692,6.41314e-05
190.999,19.7709,10.847561082537204,-1.56351143006385,0.00504172,5.07028e-05
196.482,19.7611,10.743249363891982,-1.7849347130611,0.00370908,3.83506e-05
201.979,19.7538,10.585599840955195,-1.9833800237171177,0.00253812,2.69871e-05
207.49,19.7488,10.372812521823105,-2.1342124566091796,0.00163189,1.77332e-05
213.014,19.7462,10.109380429361753,-2.202282838842817,0.00083184,9.29175e-06
218.553,19.7457,9.83682599243276,-2.134500069355879,0.000399992,4.51267e-06
224.105,19.7471,9.669563748305027,-1.8751356255989253,1.14783e-06,2.41785e-08
229.672,19.7501,9.93514743637593,-1.7745482795226566,7.04441e-11,9.76461e-13
235.252,19.7545,10.000463184345474,-2.050681984798179,3.30168e-15,3.43636e-17
240.847,19.76,9.80278590937247,-1.9682889879886956,1.82643e-19,1.67179e-21
246.456,19.7662,9.835461575704132,-1.8627649598522475,1e-24,1e-24
252.078,19.7728,9.839236404288059,-1.8549044718030243,1e-24,1e-24
257.715,19.7795,9.839393928630756,-1.8545988133638185,1e-24,1e-24
263.366,19.7857,9.839395474905885,-1.8545903535155204,1e-24,1e-24
269.031,19.7913,9.83939551086577,-1.8545901567748624,1e-24,1e-24
274.711,19.7958,9.83939551086577,-1.8545901567748624,1e-24,1e-24
280.405,19.799,9.83939551086577,-1.8545901567748624,1e-24,1e-24
286.113,19.8005,9.83939551086577,-1.8545901567748624,1e-24,1e-24
291.835,19.8,9.83939551086577,-1.8545901567748624,1e-24,1e-24
297.572,19.7975,9.83939551086577,-1.8545901567748624,1e-24,1e-24
303.323,19.7924,9.83939551086577,-1.8545901567748624,1e-24,1e-24
309.089,19.7849,9.83939551086577,-1.8545901567748624,1e-24,1e-24
314.869,19.7749,9.83939551086577,-1.8545901567748624,1e-24,1e-24
320.664,19.7623,9.83939551086577,-1.8545901567748624,1e-24,1e-24
326.474,19.7472,9.83939551086577,-1.8545901567748624,1e-24,1e-24
332.298,19.7295,9.83939551086577,-1.8545901567748624,1e-24,1e-24
338.136,19.709,9.83939551086577,-1.8545901567748624,1e-24,1e-24
343.99,19.6861,9.83939551086577,-1.8545901567748624,1e-24,1e-24
349.858,19.6608,9.83939551086577,-1.8545901567748624,1e-24,1e-24
355.741,19.6332,9.83939551086577,-1.8545901567748624,1e-24,1e-24
361.638,19.6035,9.83939551086577,-1.8545901567748624,1e-24,1e-24
367.551,19.5717,9.83939551086577,-1.8545901567748624,1e-24,1e-24
373.478,19.5378,9.83939551086577,-1.8545901567748624,1e-24,1e-24
379.42,19.5022,9.83939551086577,-1.8545901567748624,1e-24,1e-24
385.378,19.4649,9.83939551086577,-1.8545901567748624,1e-24,1e-24
391.35,19.426,9.83939551086577,-1.8545901567748624,1e-24,1e-24
397.337,19.3857,9.83939551086577,-1.8545901567748624,1e-24,1e-24
403.339,19.344,9.83939551086577,-1.8545901567748624,1e-24,1e-24
409.357,19.301,9.83939551086577,-1.8545901567748624,1e-24,1e-24
415.389,19.2569,9.83939551086577,-1.8545901567748624,1e-24,1e-24
421.437,19.2118,9.83939551086577,-1.8545901567748624,1e-24,1e-24
427.5,19.1657,9.83939551086577,-1.8545901567748624,1e-24,1e-24
433.578,19.1187,9.83939551086577,-1.8545901567748624,1e-24,1e-24
439.671,19.0709,9.83939551086577,-1.8545901567748624,1e-24,1e-24
445.78,19.0223,9.83939551086577,-1.8545901567748624,1e-24,1e-24
451.904,18.9731,9.83939551086577,-1.8545901567748624,1e-24,1e-24
458.044,18.9232,9.83939551086577,-1.8545901567748624,1e-24,1e-24
464.199,18.8728,9.83939551086577,-1.8545901567748624,1e-24,1e-24
470.369,18.8218,9.83939551086577,-1.8545901567748624,1e-24,1e-24
476.555,18.7704,9.83939551086577,-1.8545901567748624,1e-24,1e-24
482.757,18.7185,9.83939551086577,-1.8545901567748624,1e-24,1e-24
488.974,18.6661,9.83939551086577,-1.8545901567748624,1e-24,1e-24
495.207,18.6134,9.83939551086577,-1.8545901567748624,1e-24,1e-24
501.456,18.5603,9.83939551086577,-1.8545901567748624,1e-24,1e-24
507.72,18.5069,9.83939551086577,-1.8545901567748624,1e-24,1e-24
514.0,18.4531,9.83939551086577,-1.8545901567748624,1e-24,1e-24
520.296,18.3991,9.83939551086577,-1.8545901567748624,1e-24,1e-24
526.607,18.3448,9.83939551086577,-1.8545901567748624,1e-24,1e-24
532.935,18.2902,9.83939551086577,-1.8545901567748624,1e-24,1e-24
539.278,18.2354,9.83939551086577,-1.8545901567748624,1e-24,1e-24
545.638,18.1803,9.83939551086577,-1.8545901567748624,1e-24,1e-24
552.013,18.125,9.83939551086577,-1.8545901567748624,1e-24,1e-24
558.405,18.0695,9.83939551086577,-1.8545901567748624,1e-24,1e-24
564.812,18.0138,9.83939551086577,-1.8545901567748624,1e-24,1e-24
571.236,17.9578,9.83939551086577,-1.8545901567748624,1e-24,1e-24
577.676,17.9017,9.83939551086577,-1.8545901567748624,1e-24,1e-24
584.132,17.8454,9.83939551086577,-1.8545901567748624,1e-24,1e-24
590.604,17.7889,9.83939551086577,-1.8545901567748624,1e-24,1e-24
597.092,17.7322,9.83939551086577,-1.8545901567748624,1e-24,1e-24
603.597,17.6754,9.83939551086577,-1.8545901567748624,1e-24,1e-24
610.119,17.6183,9.83939551086577,-1.8545901567748624,1e-24,1e-24
616.656,17.5611,9.83939551086577,-1.8545901567748624,1e-24,1e-24
623.21,17.5038,9.83939551086577,-1.8545901567748624,1e-24,1e-24
629.781,17.4462,9.83939551086577,-1.8545901567748624,1e-24,1e-24
636.368,17.3885,9.83939551086577,-1.8545901567748624,1e-24,1e-24
642.972,17.3307,9.83939551086577,-1.8545901567748624,1e-24,1e-24
649.592,17.2726,9.83939551086577,-1.8545901567748624,1e-24,1e-24
656.229,17.2145,9.83939551086577,-1.8545901567748624,1e-24,1e-24
662.883,17.1561,9.83939551086577,-1.8545901567748624,1e-24,1e-24
669.553,17.0976,9.83939551086577,-1.8545901567748624,1e-24,1e-24
676.24,17.039,9.83939551086577,-1.8545901567748624,1e-24,1e-24
682.944,16.9802,9.83939551086577,-1.8545901567748624,1e-24,1e-24
689.665,16.9212,9.83939551086577,-1.8545901567748624,1e-24,1e-24
696.403,16.8621,9.83939551086577,-1.8545901567748624,1e-24,1e-24
703.158,16.8028,9.83939551086577,-1.8545901567748624,1e-24,1e-24
709.93,16.7434,9.83939551086577,-1.8545901567748624,1e-24,1e-24
716.718,16.6838,9.83939551086577,-1.8545901567748624,1e-24,1e-24
723.524,16.624,9.83939551086577,-1.8545901567748624,1e-24,1e-24
730.347,16.5641,9.83939551086577,-1.8545901567748624,1e-24,1e-24
737.187,16.5041,9.83939551086577,-1.8545901567748624,1e-24,1e-24
744.045,16.4439,9.83939551086577,-1.8545901567748624,1e-24,1e-24
750.919,16.3835,9.83939551086577,-1.8545901567748624,1e-24,1e-24
757.811,16.323,9.83939551086577,-1.8545901567748624,1e-24,1e-24
764.721,16.2623,9.83939551086577,-1.8545901567748624,1e-24,1e-24
771.647,16.2015,9.83939551086577,-1.8545901567748624,1e-24,1e-24
778.591,16.1405,9.83939551086577,-1.8545901567748624,1e-24,1e-24
785.553,16.0794,9.83939551086577,-1.8545901567748624,1e-24,1e-24
792.532,16.0181,9.83939551086577,-1.8545901567748624,1e-24,1e-24
799.529,15.9566,9.83939551086577,-1.8545901567748624,1e-24,1e-24
806.543,15.895,9.83939551086577,-1.8545901567748624,1e-24,1e-24
813.575,15.8333,9.83939551086577,-1.8545901567748624,1e-24,1e-24
820.624,15.7713,9.83939551086577,-1.8545901567748624,1e-24,1e-24
827.692,15.7093,9.83939551086577,-1.8545901567748624,1e-24,1e-24
834.777,15.647,9.83939551086577,-1.8545901567748624,1e-24,1e-24
841.88,15.5846,9.83939551086577,-1.8545901567748624,1e-24,1e-24
849.001,15.5221,9.83939551086577,-1.8545901567748624,1e-24,1e-24
856.14,15.4593,9.83939551086577,-1.8545901567748624,1e-24,1e-24
863.296,15.3965,9.83939551086577,-1.8545901567748624,1e-24,1e-24
870.471,15.3334,9.83939551086577,-1.8545901567748624,1e-24,1e-24
877.664,15.2702,9.83939551086577,-1.8545901567748624,1e-24,1e-24
884.875,15.2069,9.83939551086577,-1.8545901567748624,1e-24,1e-24
892.104,15.1434,9.83939551086577,-1.8545901567748624,1e-24,1e-24
899.351,15.0797,9.83939551086577,-1.8545901567748624,1e-24,1e-24
906.616,15.0158,9.83939551086577,-1.8545901567748624,1e-24,1e-24
913.9,14.9518,9.83939551086577,-1.8545901567748624,1e-24,1e-24
921.202,14.8877,9.83939551086577,-1.8545901567748624,1e-24,1e-24
928.523,14.8233,9.83939551086577,-1.8545901567748624,1e-24,1e-24
935.862,14.7588,9.83939551086577,-1.8545901567748624,1e-24,1e-24
943.219,14.6942,9.83939551086577,-1.8545901567748624,1e-24,1e-24
950.595,14.6293,9.83939551086577,-1.8545901567748624,1e-24,1e-24
957.989,14.5644,9.83939551086577,-1.8545901567748624,1e-24,1e-24
965.402,14.4992,9.83939551086577,-1.8545901567748624,1e-24,1e-24
972.834,14.4339,9.83939551086577,-1.8545901567748624,1e-24,1e-24
980.284,14.3684,9.83939551086577,-1.8545901567748624,1e-24,1e-24
987.753,14.3027,9.83939551086577,-1.8545901567748624,1e-24,1e-24
995.241,14.2369,9.83939551086577,-1.8545901567748624,1e-24,1e-24
1002.75,14.1709,9.83939551086577,-1.8545901567748624,1e-24,1e-24
1010.27,14.1048,9.83939551086577,-1.8545901567748624,1e-24,1e-24
1017.82,14.0384,9.83939551086577,-1.8545901567748624,1e-24,1e-24
1025.38,13.972,9.83939551086577,-1.8545901567748624,1e-24,1e-24
1032.96,13.9053,9.83939551086577,-1.8545901567748624,1e-24,1e-24
1040.57,13.8385,9.83939551086577,-1.8545901567748624,1e-24,1e-24
1048.19,13.7715,9.83939551086577,-1.8545901567748624,1e-24,1e-24
1055.83,13.7043,9.83939551086577,-1.8545901567748624,1e-24,1e-24
1063.49,13.6369,9.83939551086577,-1.8545901567748624,1e-24,1e-24
1071.17,13.5694,9.83939551086577,-1.8545901567748624,1e-24,1e-24
1078.86,13.5017,9.83939551086577,-1.8545901567748624,1e-24,1e-24
1086.58,13.4339,9.83939551086577,-1.8545901567748624,1e-24,1e-24
1094.32,13.3658,9.83939551086577,-1.8545901567748624,1e-24,1e-24
1102.07,13.2976,9.83939551086577,-1.8545901567748624,1e-24,1e-24
1109.85,13.2293,9.83939551086577,-1.8545901567748624,1e-24,1e-24
1117.64,13.1607,9.83939551086577,-1.8545901567748624,1e-24,1e-24
1125.46,13.092,9.83939551086577,-1.8545901567748624,1e-24,1e-24
1133.29,13.0231,9.83939551086577,-1.8545901567748624,1e-24,1e-24
1141.15,12.954,9.83939551086577,-1.8545901567748624,1e-24,1e-24
1149.02,12.8847,9.83939551086577,-1.8545901567748624,1e-24,1e-24
1156.92,12.8153,9.83939551086577,-1.8545901567748624,1e-24,1e-24
1164.83,12.7457,9.83939551086577,-1.8545901567748624,1e-24,1e-24
1172.76,12.6759,9.83939551086577,-1.8545901567748624,1e-24,1e-24
1180.72,12.606,9.839395528845715,-1.8545900584045334,1e-24,1e-24
1188.69,12.5358,9.839395528845715,-1.8545900584045334,1e-24,1e-24
1196.68,12.4655,9.839395528845715,-1.8545900584045334,1e-24,1e-24
1204.7,12.395,9.839395528845715,-1.8545900584045334,1e-24,1e-24
1212.73,12.3243,9.839395528845715,-1.8545900584045334,1e-24,1e-24
1220.79,12.2535,9.839395528845715,-1.8545900584045334,1e-24,1e-24
1228.86,12.1824,9.83939551086577,-1.8545901567748624,1e-24,1e-24
1236.95,12.1112,9.83939551086577,-1.8545901567748624,1e-24,1e-24
1245.07,12.0398,9.83939551086577,-1.8545901567748624,1e-24,1e-24
1253.21,11.9682,9.839395528845715,-1.8545900584045334,1e-24,1e-24
1261.36,11.8965,9.839395528845715,-1.8545900584045334,1e-24,1e-24
1269.54,11.8245,9.839395528845715,-1.8545900584045334,1e-24,1e-24
1277.74,11.7524,9.839395528845715,-1.8545900584045334,1e-24,1e-24
1285.95,11.6801,9.839395528845715,-1.8545900584045334,1e-24,1e-24
1294.19,11.6076,9.839395528845715,-1.8545900584045334,1e-24,1e-24
1302.45,11.5349,9.839395528845715,-1.8545900584045334,1e-24,1e-24
1310.73,11.462,9.83939551086577,-1.8545901567748624,1e-24,1e-24
1319.03,11.389,9.839395528845715,-1.8545900584045334,1e-24,1e-24
1327.35,11.3157,9.839395528845715,-1.8545900584045334,1e-24,1e-24
1335.7,11.2423,9.839395528845715,-1.8545900584045334,1e-24,1e-24
1344.06,11.1687,9.839395546825658,-1.8545899600342042,1e-24,1e-24
1352.44,11.0949,9.839395546825658,-1.8545899600342042,1e-24,1e-24
1360.85,11.0209,9.839395528845715,-1.8545900584045334,1e-24,1e-24
1369.28,10.9467,9.839395528845715,-1.8545900584045334,1e-24,1e-24
1377.73,10.8723,9.839395528845715,-1.8545900584045334,1e-24,1e-24
1386.19,10.7978,9.83939551086577,-1.8545901567748624,1e-24,1e-24
1394.69,10.723,9.839395528845715,-1.8545900584045334,1e-24,1e-24
1403.2,10.6481,9.839395528845715,-1.8545900584045334,1e-24,1e-24
1411.73,10.573,9.839395546825658,-1.8545899600342042,1e-24,1e-24
1420.29,10.4976,9.839395546825658,-1.8545899600342042,1e-24,1e-24
1428.86,10.4221,9.839395546825658,-1.8545899600342042,1e-24,1e-24
1437.46,10.3464,9.839395546825658,-1.8545899600342042,1e-24,1e-24
1446.08,10.2705,9.839395528845715,-1.8545900584045334,1e-24,1e-24
1454.72,10.1944,9.839395528845715,-1.8545900584045334,1e-24,1e-24
1463.39,10.1181,9.83939551086577,-1.8545901567748624,1e-24,1e-24
1472.07,10.0417,9.839395528845715,-1.8545900584045334,1e-24,1e-24
1480.78,9.96499,9.839395528845715,-1.8545900584045334,1e-24,1e-24
1489.51,9.88812,9.839395546825658,-1.8545899600342042,1e-24,1e-24
1498.26,9.81105,9.839395546825658,-1.8545899600342042,1e-24,1e-24
1507.03,9.73379,9.839395546825658,-1.8545899600342042,1e-24,1e-24
1515.83,9.65633,9.839395546825658,-1.8545899600342042,1e-24,1e-24
1524.64,9.57867,9.839395528845715,-1.8545900584045334,1e-24,1e-24
1533.48,9.50081,9.839395528845715,-1.8545900584045334,1e-24,1e-24
1542.34,9.42276,9.83939551086577,-1.8545901567748624,1e-24,1e-24
1551.23,9.3445,9.839395528845715,-1.8545900584045334,1e-24,1e-24
1560.13,9.26605,9.839395528845715,-1.8545900584045334,1e-24,1e-24
1569.06,9.1874,9.839395528845715,-1.8545900584045334,1e-24,1e-24
1578.01,9.10854,9.839395546825658,-1.8545899600342042,1e-24,1e-24
1586.99,9.02949,9.839395546825658,-1.8545899600342042,1e-24,1e-24
1595.98,8.95023,9.839395528845715,-1.8545900584045334,1e-24,1e-24
1605.0,8.87077,9.839395528845715,-1.8545900584045334,1e-24,1e-24
1614.04,8.79111,9.83939551086577,-1.8545901567748624,1e-24,1e-24
1623.11,8.71124,9.83939551086577,-1.8545901567748624,1e-24,1e-24
1632.2,8.63117,9.839395528845715,-1.8545900584045334,1e-24,1e-24
1641.31,8.5509,9.839395528845715,-1.8545900584045334,1e-24,1e-24
1650.44,8.47042,9.839395528845715,-1.8545900584045334,1e-24,1e-24
1659.59,8.38974,9.839395546825658,-1.8545899600342042,1e-24,1e-24
1668.77,8.30885,9.839395528845715,-1.8545900584045334,1e-24,1e-24
1677.98,8.22775,9.839395528845715,-1.8545900584045334,1e-24,1e-24
1687.2,8.14645,9.839395528845715,-1.8545900584045334,1e-24,1e-24
1696.45,8.06494,9.839395528845715,-1.8545900584045334,1e-24,1e-24
1705.72,7.98322,9.83939551086577,-1.8545901567748624,1e-24,1e-24
1715.02,7.9013,9.83939551086577,-1.8545901567748624,1e-24,1e-24
1724.34,7.81916,9.83939551086577,-1.8545901567748624,1e-24,1e-24
1733.68,7.73681,9.839395528845715,-1.8545900584045334,1e-24,1e-24
1743.04,7.65426,9.839395528845715,-1.8545900584045334,1e-24,1e-24
1752.43,7.57149,9.839395528845715,-1.8545900584045334,1e-24,1e-24
1761.85,7.48851,9.839395528845715,-1.8545900584045334,1e-24,1e-24
1771.28,7.40532,9.83939551086577,-1.8545901567748624,1e-24,1e-24
1780.74,7.32192,9.83939551086577,-1.8545901567748624,1e-24,1e-24
1790.23,7.2383,9.83939551086577,-1.8545901567748624,1e-24,1e-24
1799.73,7.15448,9.839395528845715,-1.8545900584045334,1e-24,1e-24
1809.27,7.07043,9.839395528845715,-1.8545900584045334,1e-24,1e-24
1818.82,6.98617,9.839395528845715,-1.8545900584045334,1e-24,1e-24
1828.4,6.9017,9.839395528845715,-1.8545900584045334,1e-24,1e-24
1838.01,6.81701,9.839395528845715,-1.8545900584045334,1e-24,1e-24
1847.63,6.73211,9.83939551086577,-1.8545901567748624,1e-24,1e-24
1857.29,6.64699,9.83939551086577,-1.8545901567748624,1e-24,1e-24
1866.96,6.56165,9.839395528845715,-1.8545900584045334,1e-24,1e-24
1876.66,6.47609,9.839395528845715,-1.8545900584045334,1e-24,1e-24
1886.39,6.39032,9.839395528845715,-1.8545900584045334,1e-24,1e-24
1896.14,6.30432,9.839395546825658,-1.8545899600342042,1e-24,1e-24
1905.92,6.21811,9.839395546825658,-1.8545899600342042,1e-24,1e-24
1915.71,6.13167,9.839395546825658,-1.8545899600342042,1e-24,1e-24
1925.54,6.04502,9.839395546825658,-1.8545899600342042,1e-24,1e-24
1935.39,5.95814,9.839395546825658,-1.8545899600342042,1e-24,1e-24
1945.26,5.87104,9.839395528845715,-1.8545900584045334,1e-24,1e-24
1955.16,5.78372,9.839395528845715,-1.8545900584045334,1e-24,1e-24
1965.08,5.69618,9.839395528845715,-1.8545900584045334,1e-24,1e-24
1975.03,5.60841,9.83939551086577,-1.8545901567748624,1e-24,1e-24
1985.01,5.5204,9.83939551086577,-1.8545901567748624,1e-24,1e-24
1995.0,5.43222,9.83939551086577,-1.8545901567748624,1e-24,1e-24
2005.0,5.34422,9.83939551086577,-1.8545901567748624,1e-24,1e-24
2018.56,5.22509,9.83939551086577,-1.8545901567748624,1e-24,1e-24
2041.8,5.02064,9.83939551086577,-1.8545901567748624,1e-24,1e-24
2081.59,4.66929,9.83939551086577,-1.8545901567748624,1e-24,1e-24
2149.73,4.06746,9.83939551086577,-1.8545901567748624,1e-24,1e-24
2266.33,3.03753,9.83939551086577,-1.8545901567748624,1e-24,1e-24
2465.65,1.27576,9.83939551086577,-1.8545901567748624,1e-24,1e-24
2805.8,-1.73264,9.83939551086577,-1.8545901567748624,1e-24,1e-24
3384.56,-6.86089,9.83939551086577,-1.8545901567748624,1e-24,1e-24
4364.2,-15.5668,9.83939551086577,-1.8545901567748624,1e-24,1e-24
6007.39,-30.2399,9.83939551086577,-1.8545901567748624,1e-24,1e-24
8718.86,-54.6428,9.83939551086577,-1.8545901567748624,1e-24,1e-24
13201.2,-95.5018,9.83939551086577,-1.8545901567748624,7.89344e-21,7.41947e-23
21000.0,-168.099,9.83939551086577,-1.8545901567748624,3.27009e-11,5.16066e-13
21010.0,-168.099,9.83939551086577,-1.8545901567748624,3.27009e-11,5.16066e-13
